%time,field.layout.data_offset,field.data0,field.data1,field.data2,field.data3,field.data4,field.data5,field.data6,field.data7
1675854937554836273,0,2.177003157777258,1.3670513777461573,1.116258069239049,1.8093734509055663,1.5884973599363121,2.2435074716158097,1.265348751801612,1.216302081768769
1675854937558629751,0,2.1705494331923725,1.3601958051427037,1.1141323782260744,1.8095745105025423,1.5897640399583102,2.2368980204670286,1.2562404684227435,1.2239762561739107
1675854937563809633,0,2.1780902112404315,1.3399901519197819,1.120975277799902,1.8097733976391555,1.5820718063698365,2.244459015848097,1.2616726511678,1.256747130964866
1675854937569107532,0,2.1809044261271042,1.3402787907893325,1.1200633944260223,1.8136980219747296,1.582473072755874,2.216673599910838,1.2693309739749186,1.2560913196988375
1675854937569358348,0,2.1791730949275436,1.3027946225694618,1.131002803382002,1.8300798264034637,1.5859608122555344,2.196356118589253,1.2787558830351569,1.2384252712261827
1675854937569437742,0,2.207969535999269,1.2999261555028774,1.146361203887809,1.8423586042805111,1.5584324521724577,2.1725936806808215,1.277241281482746,1.2303173468923507
1675854937569487810,0,2.153023754440019,1.3012271443090302,1.1466156991095264,1.830458168977695,1.55832634504799,2.149768981652682,1.2772860361113254,1.2301042578207824
1675854937569533348,0,2.071379406086039,1.2995407458021304,1.134827522475716,1.8261829278164263,1.5583128645415645,2.150959047170905,1.2755421566553526,1.2264278150785444
1675854937569577932,0,2.067606031396014,1.2989153100288418,1.1346932392688602,1.8249931052263728,1.558471369897881,2.149658415962181,1.2801977314426811,1.2432688192706656
1675854937569620847,0,2.0779048263293545,1.3183604118115213,1.1303424361545975,1.8227914728618932,1.558082689074578,2.1456282084770586,1.2831265561182867,1.2752087398158973
1675854937569663286,0,2.120875452595961,1.3284328942625039,1.1220312426167367,1.8242352472340813,1.5655167053323025,2.145770207430643,1.2815314400672708,1.2666822086835285
1675854937569705009,0,2.1128313646833226,1.3322776338296465,1.1251597301844267,1.822205978505036,1.5672157989794724,2.1450162663714085,1.2919534176943572,1.3529207762951174
1675854937569746494,0,2.267204131388712,1.3347851806326743,1.1275170047419876,1.838201193492464,1.5765854017411522,2.1446120212413153,1.2852514936403718,1.3984422117616073
1675854937569788455,0,2.4962617140215304,1.3606242482938153,1.122191327880378,1.8332828487808386,1.5738593205389173,2.1448409450049777,1.2800267900745033,1.4128307754220903
1675854937578588962,0,2.5290653073397986,1.3637900870554363,1.0987896072139158,1.833431779466309,1.5676692595091672,2.1539645605380247,1.2771384730375765,1.376711544877412
1675854937583509683,0,2.5127957094361943,1.3612255694019977,1.0988652927634963,1.8299541965271662,1.5676908935598013,2.158593093733315,1.2767523625831703,1.3681037062695984
1675854937585238218,0,2.486515374300885,1.3500900703184782,1.1013493193304926,1.8215463820097668,1.567725877949281,2.157984656816012,1.2775549975313323,1.3681192415546428
1675854937587338924,0,2.4881797096011344,1.343009455056621,1.1007317857956787,1.8172668238942955,1.5748187377752914,2.1789481319851673,1.2817972796040717,1.36698233940392
1675854937587551593,0,2.4993189461587892,1.3379191466926672,1.100739843109513,1.8222971713580078,1.596083683959547,2.2384738582934567,1.28783352678531,1.369998539327737
1675854937589826107,0,2.5046300410160813,1.349840632542459,1.1002120055903548,1.8239786641723266,1.5935037122034343,2.2586430872312078,1.2828196471702864,1.3700969957202294
1675854937590117931,0,2.502161318207198,1.34872659724342,1.0911795516770189,1.8305388669199505,1.5991106758916624,2.2587929796211546,1.2811876967500726,1.368541232543517
1675854937590824604,0,2.5116185522447343,1.3487738893499868,1.0899388751702164,1.8335896814659174,1.5978614746927986,2.2718189126693895,1.28083582846514,1.3699290621170919
1675854937591609716,0,2.5384152037124044,1.340587838343053,1.0969757839311136,1.8479808033662266,1.6005919256881307,2.2698837931588343,1.276389850853212,1.3695287518480035
1675854937594131231,0,2.5492568146070327,1.3373389127297375,1.0934979202486987,1.8488141021621591,1.5964138875688938,2.298886439765215,1.2772295478964546,1.368603342953969
1675854937594406127,0,2.558242305654169,1.338509001513801,1.104659117686527,1.8476545435547456,1.677185428885128,2.3508048151770478,1.2807049511935857,1.3764932605065008
1675854937594549417,0,2.559861898412268,1.3357861328700975,1.1029294984360596,1.8527724109712904,1.7165834188907234,2.348699854749354,1.281481512616389,1.3968033660935457
1675854937595268726,0,2.557254200276425,1.326285265573194,1.1031371170603328,1.8341562129779465,1.739664229568434,2.3836077661000297,1.2941973928275814,1.3949737492417846
1675854937595988988,0,2.5537560345445276,1.333476663924593,1.1046879778272474,1.8649702628560278,1.7487265350064882,2.443268446349818,1.3200136276565237,1.394640466135909
1675854937596158266,0,2.5514074518460914,1.3556709166921486,1.1087299295922461,1.8878188041475243,1.7666294690887183,2.4519705337238853,1.3046608778442965,1.3944676094475617
1675854937596968650,0,2.5493549485163665,1.361095957712443,1.107775782782458,1.8805055938395059,1.783053733749904,2.465539607663544,1.304379809877226,1.394430646195255
1675854937599706172,0,2.533326947207128,1.3587861819019784,1.1142650569765684,1.8775253340290983,1.7877433947961576,2.4769743677679816,1.31190555743317,1.3982769565825832
1675854937601487636,0,2.521280349038718,1.36362694884518,1.1161498304687485,1.8777447041512985,1.7913184054825049,2.4753429955507844,1.305488404892243,1.3965874510660774
1675854937603808164,0,2.517726001344954,1.3612336662345863,1.118875338135166,1.8900332634455894,1.8013560141244613,2.481065944449502,1.3016444694738383,1.3977468202888943
1675854937606465816,0,2.531211722180808,1.3581481087691631,1.1180936498289875,1.9182467158820284,1.9413720978436713,2.487252289312997,1.3166255884801403,1.4107174444345116
1675854937607556819,0,2.5450243860152364,1.3573416570365417,1.1146141260347047,1.9218742885297135,1.9396760103311248,2.4877140167683107,1.3081454435597515,1.4086749528316773
1675854937607688665,0,2.55935991642018,1.3566456526645867,1.1225552380124202,1.9638290945930041,2.035875325444336,2.493740946539827,1.307807967926925,1.44045162530007
1675854937607813596,0,2.5512791806972936,1.3604919134714795,1.1223061626936068,2.011872783680005,2.1262362432539277,2.5126559814360405,1.3074570242916874,1.4429192755356623
1675854937607871532,0,2.548724645556049,1.3769546224186187,1.1221883121393337,2.0041494231397747,2.121905311578731,2.5216855822184647,1.2937307005935057,1.4448152490434671
1675854937607914447,0,2.56729860692433,1.4249112768344045,1.128061255107413,2.0014602527587435,2.1279963078305424,2.5137069288023377,1.2910124244221506,1.4437603079470314
1675854937607961177,0,2.5691554099660063,1.4366456398583745,1.1316575624499468,2.0011234381718817,2.1150228491149594,2.502102706808339,1.2796952530458214,1.4470637907368389
1675854937608000755,0,2.5732704813012113,1.4345791000518322,1.1227532284461834,1.9978381023714702,2.1028608062639402,2.5027595744618063,1.2907143195526034,1.447310671510399
1675854937608043432,0,2.567733717783443,1.4377451782993675,1.1152134665185056,1.9943024934613345,2.105801377154515,2.501666013041376,1.2767032645796772,1.441818711288719
1675854937608081579,0,2.5724362634366766,1.4367815731729527,1.1149892892932705,1.9932422401105792,2.1037133060868523,2.501936606523546,1.271227907624774,1.4484444879517822
1675854937608123540,0,2.5722598096748315,1.4361213984357293,1.114702414241061,1.994697785688948,2.1035486600997886,2.5082648101821126,1.2711667491765375,1.4483382652700305
1675854937608191490,0,2.569358747631599,1.431125455475638,1.1142196017047206,1.989713236666178,2.103281641772771,2.5125747882950473,1.2689513805756232,1.4523863538532003
1675854937608258962,0,2.5736550501513222,1.4228070291205164,1.1026733039227663,1.9913211690547015,2.107600795241208,2.521255030928331,1.2676670724354666,1.4462934952377025
1675854937621768236,0,2.5747210869023163,1.4247150507635358,1.1067997905862685,1.9897131561362849,2.1115445309744043,2.5185236917751537,1.267682558906782,1.4465470327255427
1675854937626030683,0,2.5787299670679062,1.424368915118186,1.1231795573603618,1.9906364801244638,2.1134809629377176,2.522197108851794,1.2527693831309556,1.446873682269243
1675854937628771305,0,2.573637952630513,1.4131376429002693,1.1253698073526543,1.965837030654517,2.115646709834719,2.535753518961674,1.243799931625728,1.4644167213032182
1675854937630478382,0,2.6573584826514765,1.4076165480312481,1.120011729049741,1.9590572512745006,2.1105662298139234,2.535396388803364,1.2343474660194362,1.5284807486874494
1675854937633492946,0,2.7418585714701176,1.4068261256846457,1.1292918558931762,1.9659844684487309,2.118264297557554,2.544580752993792,1.229323389001741,1.6101594960816012
1675854937635586261,0,2.8660243107868175,1.3996468737628058,1.1494366283899824,1.9976629777324102,2.0894400369602653,2.5443713695092733,1.2211158219649347,1.6127236691678066
1675854937635949611,0,2.881788504262315,1.4072930479106902,1.1379094754672128,2.0025680917727584,2.067225979828525,2.5459908654872154,1.2206463816470536,1.6288774351679396
1675854937636941671,0,2.8714021596835315,1.5771544467696532,1.1144414513417875,2.016536846326052,2.070236260147403,2.5533731183817716,1.2147394809938585,1.627411110827469
1675854937637113809,0,2.880976163281163,1.5823535250132759,1.1114411058813125,2.012659056342595,2.0693312460659423,2.5551361020019487,1.2141468717893333,1.6259400221316898
1675854937637356519,0,2.8787603431401334,1.5819044453216204,1.112849356336185,2.013327579238938,2.0589468218784592,2.562818220025765,1.205779194299353,1.6248364575521597
1675854937637455940,0,2.8717025482178413,1.5815179881098846,1.1120572319720654,1.9621105568699262,2.0574139187355143,2.5579242893647254,1.2011501635023165,1.624922698892712
1675854937637525320,0,2.866161776656542,1.5823036620268163,1.1275265084032402,1.8603218879966474,2.0574139024411733,2.5539035062556033,1.1814019659282837,1.6305664618337892
1675854937637594461,0,2.8621543036351773,1.5764684521653192,1.1276770731897086,1.8257475962442218,2.057348273244675,2.5201475516561525,1.1798358268402587,1.6247697750798689
1675854937637650728,0,2.8725631840820594,1.5733256671692624,1.1261225277506153,1.8293989602712626,2.055837455858813,2.495009152867806,1.1766225210915857,1.6236897333491485
1675854937637716293,0,2.8717387374813046,1.5771721872334077,1.1311523612409005,1.8344597501913609,2.0538687087311853,2.4499695202447094,1.1786363096025982,1.6184220052252545
1675854937637770891,0,2.872167754977201,1.5752169518621695,1.1205499423114889,1.8279739753039193,2.0580908047963233,2.4540224161530335,1.178453920407945,1.6258316214402877
1675854937646649599,0,2.8699243172651907,1.5653490225338513,1.1062753395074916,1.8277923945606291,2.0506983276535156,2.455828517552314,1.1787675471679702,1.6271687380703845
1675854937649225473,0,2.8723190339149354,1.5704293623289234,1.0976222627675374,1.8287640847896456,2.0501715747760842,2.4570303242003684,1.1769860115486668,1.6226166047369757
1675854937649342536,0,2.874751462457741,1.5750835968783348,1.0989630616054717,1.8420046836928299,2.0093662580139595,2.4591238565376776,1.1892792230528273,1.6219517307307243
1675854937649439811,0,2.8856897985318577,1.575134767911092,1.0933712359217878,1.8301809064184662,2.0067789641486313,2.4582690173042936,1.1966810198637228,1.6214384438951561
1675854937649713754,0,2.8911407121303347,1.5790859304504345,1.0923514757598936,1.831770405692677,1.9908531045066895,2.448127297539394,1.1962963363982362,1.61992564020084
1675854937649835348,0,2.8819426587682924,1.6055584076160727,1.0995907968442848,1.8305126402793663,1.9852071863630671,2.4436144957723394,1.1953560077171137,1.6177149219027724
1675854937650000333,0,2.8673006324578925,1.6081311535736396,1.1078443567694585,1.8270586303568415,1.9849852946626274,2.441821142464489,1.1931784639316754,1.6191349187550248
1675854937650059223,0,2.8634902885414597,1.6080862468743162,1.1022608425140665,1.8257397249069998,1.986527444742928,2.4418919093147315,1.190701679995817,1.620400403179116
1675854937650116205,0,2.8666270931966964,1.608799045509527,1.094832663902842,1.8284393828693906,1.9850197909282492,2.439323086869435,1.1936709584466407,1.62081492478815
1675854937650181293,0,2.865410949702616,1.6087871137212846,1.0920168055796615,1.8267419123025737,1.978681600001109,2.4280141180527974,1.1898868164350729,1.6229598980252689
1675854937650237321,0,2.8627373602287713,1.6066261141836464,1.0906726488822927,1.8194959741701817,1.9767584963072957,2.4215969937688486,1.1897848190458034,1.6162120857047928
1675854937650292634,0,2.8741452583246576,1.6039241596012614,1.112780217126488,1.8150172401657962,1.9731966447544211,2.4220286981833103,1.1584070333933332,1.6162386876788377
1675854937650348424,0,2.8734032033920127,1.6008316444675381,1.0889524321787918,1.8153055340394624,1.9715733895976035,2.40977317789776,1.1575574771716324,1.6071812019708582
1675854937650403499,0,2.8694722663521497,1.598839363436485,1.0746404619491532,1.8154112137781573,1.9707994839302212,2.414190224734416,1.1542765720352433,1.6091351914582896
1675854937650458574,0,2.8495995557906966,1.5977271815524983,1.0724919308564764,1.8226653674266413,1.9675790379913731,2.4120178927057965,1.1623524202641238,1.6043900679892875
1675854937650513648,0,2.8557249333512074,1.596769085600883,1.0835074803917584,1.8247597865135947,1.9612837490268686,2.4110559423704885,1.1620700924920535,1.600617739962772
1675854937665544033,0,2.854223884831554,1.596469022967002,1.0875856436794205,1.8284475599749859,1.9738202701087109,2.426261133654474,1.1626579245006843,1.6000225110116442
1675854937666175603,0,2.8577218984913952,1.5943915615221491,1.1013221166674747,1.827953652367911,1.956464589041275,2.4098840154679766,1.1631250148533807,1.59431542943635
1675854937670537948,0,2.7504425836027018,1.5393885326506103,1.090953925507239,1.7951352607170505,1.9645226764086663,2.4278900038491327,1.169661449791067,1.4982556194558372
1675854937670659065,0,2.7158551816886276,1.5383839344892472,1.0810166547460882,1.789932257448096,1.9942542063805668,2.4292932261667346,1.176755282921818,1.4929842027808193
1675854937670804738,0,2.728590944399255,1.5372646245093045,1.077595175946936,1.8045842230396432,1.994260938856155,2.423438465036076,1.1819950350055513,1.4917279597195376
1675854937670866966,0,2.7291282852567815,1.5361393594374193,1.0803288762919936,1.8038887259082463,1.9828485398402986,2.388570174386561,1.1856767768435594,1.4926703555390881
1675854937670926332,0,2.7297246933948975,1.5269298790583665,1.0764334763303056,1.806027788467773,1.9745803619357114,2.377073312894519,1.168309074605725,1.487969696758141
1675854937670984745,0,2.736726647777724,1.5190299935877534,1.0608226779512502,1.8099962129662301,1.974368904865571,2.3804434939843278,1.1637650314397465,1.4864206745716046
1675854937671042203,0,2.7506894796228116,1.51773756758311,1.0624493837429585,1.8312667811380723,1.9625422027714103,2.3958687892172215,1.1645665063265431,1.4912486128163067
1675854937671099662,0,2.7512764906512435,1.5319956685183485,1.0633885407621066,1.8312542224369672,1.9575440845595162,2.4009378851829797,1.1796802638157846,1.490503777451261
1675854937671156406,0,2.745961655452406,1.535336998703366,1.0620714937146312,1.8328146888020973,1.9592471051698512,2.3937236676887927,1.1772860528045388,1.4932612986883818
1675854937671212911,0,2.744922686588017,1.538497394528266,1.062645374177373,1.8517642241352386,1.9589159746323956,2.3883772082731154,1.1849258931226192,1.4977694587828998
1675854937711012363,0,2.746378481851471,1.5434257766819701,1.0629138282822161,1.8571883688915034,1.9590198933573233,2.370788384336985,1.1858541924890897,1.497037158978926
1675854937711226224,0,2.7467566231054668,1.5432379097254068,1.0538224205363156,1.854610712252387,1.9586670013907275,2.353367625252475,1.1770118618653251,1.4960489125911065
1675854937713238954,0,2.748288359253487,1.5410733629588542,1.0442716153336942,1.8506213376422824,1.9654955323236167,2.350141458172786,1.1768789339241592,1.5020732700510369
1675854937726938486,0,2.758221249024706,1.5404453794833382,1.0429524249724327,1.8564049979289354,1.9686832090368103,2.353078781845037,1.169781539758188,1.5264354038449666
1675854937729420661,0,2.7853943755835497,1.5417232433327053,1.0403991315439902,1.8600741898838815,1.9669515753250317,2.3484331796613813,1.171054477923094,1.548963595306502
1675854937729600906,0,2.8110991350057857,1.546153274769968,1.0405329846405016,1.8407578605917725,1.9696199566296326,2.3357862766148108,1.170925773008024,1.558830764485678
1675854937729858875,0,2.853640542307462,1.5057773620368737,1.0186778400790375,1.8469583835222063,1.958080979878287,2.233784675062038,1.2847515974702863,1.5773880549627024
1675854937729949235,0,2.853135256644859,1.5046969542153386,1.0184507507994165,1.8435605186942965,1.9612046452914176,2.234051421373652,1.2956803696781842,1.569927856688204
1675854937730038881,0,2.8406823365212546,1.5102026644800748,1.0184825688423018,1.8173990288132857,1.9588255689352672,2.2364372382965567,1.29441132949309,1.566380378382638
1675854937730127334,0,2.828289609355552,1.5126251800412402,1.0211248024260347,1.8170466012814919,1.9576135033460693,2.236681481882422,1.2956288465150714,1.5700481111755376
1675854937730216026,0,2.819380029293483,1.5206336999529164,1.0244185090842923,1.8195714947511727,1.9572380638244773,2.2376951660361706,1.3132924635263157,1.5921543080642115
1675854937730303525,0,2.833531811806432,1.517521663195324,1.0299081269758577,1.8377918229926364,1.9515996372513773,2.216738162152379,1.3110426877927224,1.5951802523588672
1675854937730390787,0,2.884188935648672,1.5125730258300862,1.055441430471962,1.8606255768998952,1.9556550955018543,2.181668667436092,1.3112504752114016,1.5914095761955858
1675854937730478286,0,2.8881225867454132,1.4981783845385788,1.0559801501981283,1.8599104255912582,1.95275746355646,2.1737298980296162,1.3254350114711828,1.6089649358479736
1675854937730569124,0,2.890161559676887,1.4957947681486672,1.0562319456748095,1.8591393292761842,1.951744049686332,2.172377493003102,1.3225866954814474,1.609723329950638
1675854937730657577,0,2.8845444841097327,1.493654572449084,1.0565160570460153,1.859452908518808,1.948722212957746,2.1727090312783215,1.3156084402800092,1.6115448337411074
1675854937756365299,0,2.886916354283644,1.5126616816921565,1.068873610819949,1.8653177313707063,1.9483568006165395,2.1748965819533987,1.3372318993266799,1.6122982038412224
1675854937757605314,0,2.8989594124797877,1.607202587195164,1.087010449974886,1.8655452510767543,1.9538623733478486,2.175478694514946,1.3415061019370167,1.612026350453452
1675854937758192300,0,2.907974778761841,1.643498891927562,1.0939188785702705,1.8666285547662331,1.9727959151101653,2.1777834108445764,1.3240546374315434,1.6103076714694182
1675854937758711576,0,2.9089938876776107,1.671741172142178,1.1077808279916304,1.866554144592896,1.9982305442935935,2.1969861743365136,1.3238330336286186,1.6049810465125267
1675854937760872364,0,2.9310567635681704,1.6709958172422577,1.1034107219550247,1.8683659341420664,1.9993589853241593,2.197055467867798,1.3185952421954565,1.582235078924925
1675854937761088371,0,2.931076475402877,1.6680495766877816,1.1014362332919245,1.8614947311986192,1.9961298036688662,2.185868787937041,1.3110528207480416,1.5809700078394555
1675854937769939184,0,2.9161425614761933,1.6671354039901654,1.0947304814911176,1.852407397940087,1.9960483562869222,2.1854962843324293,1.3045560066294641,1.578437645865565
1675854937770153284,0,2.92725915316315,1.6642340671281408,1.093323838809774,1.8647786629218366,2.000386477056777,2.181087544267518,1.3036451775284077,1.6033527093691045
1675854937770939826,0,2.9959876424853773,1.6741620386172265,1.086946128874703,1.8919330102687684,2.058879281063749,2.1825918276359624,1.3332447104998306,1.6030780048547322
1675854937771229267,0,3.0062531594482236,1.673664943015788,1.072382297347399,1.891324108809891,2.11406173335792,2.1809135813202842,1.3517677209854746,1.6028035373918232
1675854937771417379,0,3.0170535902353,1.6715710428076727,1.0741400504502785,1.890670529875101,2.1273766410179955,2.1806419514724444,1.3565578554770237,1.6015198794030954
1675854937771692276,0,3.0168059076387364,1.671160671784403,1.0739844805137688,1.8905315080015488,2.1284737259092124,2.1784768803465577,1.3555322239920375,1.6018307222763863
1675854937771817207,0,3.016933349287075,1.6737684837933817,1.0760729998484715,1.894152582268091,2.129710917538342,2.176789610902597,1.3499456887083816,1.5873687020767786
1675854937771931409,0,3.0045462291508755,1.6561779678467297,1.0771241918702084,1.90349585381787,2.1298420550867374,2.199116690467558,1.3464795021803804,1.5612185138582984
1675854937772018194,0,2.9754483673348253,1.6481072419833755,1.0845313620339152,1.9020554554885607,2.11962533520207,2.2156482079026096,1.3494657104683054,1.5682822804785645
1675854937772114992,0,2.9767003148842854,1.6483572697091788,1.110903345786443,1.901844645069544,2.1240530352647315,2.2212822957037957,1.341872732907925,1.4963448416257652
1675854937778259754,0,2.854528898040001,1.6496763664416016,1.1080859229571314,1.8850330996249802,2.122588916662674,2.2233458239987542,1.3373295519513417,1.450509419933496
1675854937781198740,0,2.646305981269564,1.6212836564499125,1.1006660715804948,1.8802595412071652,2.1420545404024915,2.2456026488285046,1.3369581117822753,1.436721653456777
1675854937781377553,0,2.610656802166757,1.6189533949130603,1.1002745473700726,1.8808010163312108,2.1462476267099344,2.242467572669088,1.3366390957843723,1.4688826905209962
1675854937781476259,0,2.6249930848542498,1.61929392291278,1.0998130555386387,1.880790502642952,2.146399169633735,2.2389500658696195,1.34468628939273,1.4791679939088882
1675854937783090353,0,2.632961216417297,1.6182675281761705,1.0991556297493723,1.8799354229899337,2.149183813039588,2.2537014825220085,1.3455473733832157,1.4853974815578517
1675854937783640861,0,2.631548733112247,1.620650210523748,1.0996764967617567,1.8802360392073934,2.1453321664179037,2.253794226437727,1.3399390162188378,1.486011298192093
1675854937784641027,0,2.621685848743644,1.6347320504797875,1.1029236562083997,1.8784074225917977,2.1293003963414776,2.218507445282133,1.3153669793195917,1.4834675697507063
1675854937785028457,0,2.6242299431770917,1.6327257335893777,1.0989502127212087,1.8833838659879134,2.1323698591103084,2.2130059711405163,1.3153686547152148,1.484601277024128
1675854937787052869,0,2.6253143147615963,1.637220973690765,1.0994310668786953,1.8757237023554982,2.1271320972791865,2.212802240536908,1.314877248020345,1.4852831971852871
1675854937788055658,0,2.6189596721061377,1.6420776072466572,1.099194759522156,1.8620095323275385,2.1317217814390452,2.220727432342746,1.3145248200852617,1.4841438997463956
1675854937788148641,0,2.6127370076852543,1.642371523832717,1.0935030411347961,1.8439677106398928,2.1277222182230315,2.231318916278293,1.3194232227305218,1.484208259422444
1675854937788227796,0,2.624747576632493,1.64217538008053,1.098728905578326,1.8535148810597637,2.1306910609168037,2.2021856007128484,1.3195175632529772,1.4871332993830209
1675854937788320302,0,2.6189098195889473,1.6401240228433698,1.0809884782326529,1.8527925136422019,2.0593013449019377,2.177014474888078,1.3133707172841071,1.4843417204662208
1675854937788372993,0,2.607626011974908,1.6412814878229347,1.0867171845455899,1.8232771639693681,2.0258114255682704,2.1769269873180557,1.3400631389720412,1.4679450192464303
1675854937788408279,0,2.6075055898909785,1.6491486145730652,1.107467931899931,1.8251443250429709,2.0034323540978094,2.1264383405601217,1.3576284445727633,1.4743275758963585
1675854937788441896,0,2.613139256043284,1.6460138860054065,1.1081855278338615,1.7870722377196517,1.9938988915223053,2.0530532972362714,1.3571484735169033,1.4789706255678075
1675854937800979137,0,2.6288158035941787,1.6259766514444434,1.1036892666043872,1.763032503910579,1.971173132590006,2.0474052126908,1.3665076387240116,1.4795706246272171
1675854937809632778,0,2.804570404231604,1.6277836811997068,1.104249144115059,1.7886199075405882,1.8003608633067276,2.0121367889904525,1.367299779153443,1.5186163386588578
1675854937809781551,0,2.792767815952297,1.6276451925558892,1.1019232085470019,1.7834182847683684,1.8014975990788564,2.0442521001470557,1.3675777026058962,1.5202050219229566
1675854937810480833,0,2.783583833945457,1.6353734760714216,1.0949164852873887,1.7374014288720765,1.690302795088643,2.0614997734985474,1.3682576318178574,1.4922715380408906
1675854937810698747,0,2.7845184570995936,1.6337708213324222,1.0984811240080001,1.6818154255007933,1.5765713201877911,2.0570660045631097,1.3830408233089868,1.4911081160594701
1675854937810787439,0,2.7847222896012815,1.6223215027912452,1.1121134914942676,1.6748141450117426,1.5827697145570685,2.0482834378667336,1.3831233954136344,1.4893171324870482
1675854937810945510,0,2.7743477580119085,1.5674431790012873,1.099679016953283,1.6712048934951191,1.5969712365749953,2.0961350006398587,1.3970527064575797,1.4939257805886144
1675854937811011314,0,2.778168673854789,1.5500818716106548,1.1018236011214917,1.6725015224539894,1.6530406890741567,2.1701569528048505,1.4257926428433756,1.500112917377029
1675854937811072111,0,2.774781473317696,1.5516750205447247,1.1032067772967393,1.6732114473475814,1.6570008963567868,2.1694212144867255,1.4158734280863294,1.4998418800386462
1675854937811133861,0,2.775234342343231,1.548807957975901,1.1032091507765673,1.6753803177678435,1.663347273386761,2.1843697766070425,1.4173778087431734,1.4998843694510828
1675854937811194419,0,2.769741455091524,1.548751834770133,1.1096245926880535,1.6852847798397006,1.6764195744417003,2.191341890105501,1.4177992445699645,1.4947420314939486
1675854937811254501,0,2.7699824460319507,1.5489388299112499,1.1126519594293307,1.6848962800228648,1.6778714878774028,2.1840781143910535,1.417747496563113,1.5019460061458247
1675854937824602365,0,2.774504262936273,1.5489167543882725,1.1139375437252357,1.683530984283358,1.6774678624874955,2.1785135152109527,1.4272853290516598,1.5029185702298622
1675854937824767351,0,2.793782305430386,1.5482343746283094,1.1246279459333932,1.6808541595794821,1.6728550889303648,2.1685807708102565,1.4301044157424263,1.5036391068516732
1675854937824901342,0,2.792046507684778,1.5409258071892773,1.1206375419720307,1.6809383955490331,1.6967773251700815,2.286046534146209,1.4390145303820714,1.5200592406316533
1675854937828615903,0,2.792813177328492,1.5701767544350147,1.128647651017896,1.679311066282579,1.6936178238286694,2.3231693253052548,1.4618845568874326,1.510559241703589
1675854937829281568,0,2.7117018809387097,1.5816029560613212,1.1247385502669418,1.672500745295315,1.7033565360641945,2.3389631838338323,1.461197809835587,1.445989701341516
1675854937829533576,0,2.6293175703875655,1.578694178226208,1.1209751856251438,1.644656113957223,1.6979340724720915,2.327890972275111,1.4541052410988864,1.354785470410398
1675854937829670190,0,2.4966800999976155,1.5778540853859697,1.0930124214515282,1.616228308329861,1.701247587199801,2.3278483814356083,1.449344853884638,1.3526552815116908
1675854937829820394,0,2.4765936886322883,1.5819315095171838,1.0944145473129607,1.6030024182409353,1.7178211273288053,2.3681223403140232,1.4471487165037626,1.3414467802834706
1675854937829885482,0,2.484306281382799,1.4118348915159824,1.0909483385554057,1.5987362905973654,1.6931155605114236,2.3613518468532777,1.4489939994607293,1.341927939321256
1675854937829944372,0,2.4639817555906163,1.458578388014442,1.0935389812124081,1.5958963441775706,1.693508119453889,2.372958743068941,1.4739116608217766,1.3407372019997195
1675854937830001115,0,2.465462854955267,1.5350112477916131,1.101769324555462,1.5944943664987763,1.7084757126991719,2.363733790254122,1.471215463681447,1.342199384836015
1675854937830057621,0,2.4629367287021156,1.5372170256056474,1.1019275879808141,1.5870043891280483,1.710178495287322,2.3691696359407968,1.4805506109258468,1.340888376557253
1675854937830165386,0,2.4739955098064477,1.5405427308856539,1.0798127911288582,1.5708858324803412,1.7101829692565436,2.369578772134574,1.4890227399706264,1.3334564484630933
1675854937830224275,0,2.4789847537962864,1.5400317596387012,1.0795952864945673,1.567860187641839,1.7306545847098334,2.3878806365340957,1.4891286866283775,1.332312296303238
1675854937830281257,0,2.4671045753801395,1.5375955036108948,1.0868083976350762,1.564891545425868,1.7371090093299146,2.400053999257511,1.4953168843099423,1.3289030273271656
1675854937868211507,0,2.46704722642779,1.5351103655161158,1.0854548745190344,1.5596225317797396,1.7315292563584195,2.4145180208382304,1.4959919594772464,1.3329373210101942
1675854937873278141,0,2.4670292453475553,1.5358686867113074,1.093458072414579,1.55962174059887,1.7260130735134538,2.423556437403535,1.5025944468182246,1.334656255844272
1675854937874306917,0,2.4651364438052235,1.539837467014694,1.1162926798285662,1.5597842001175903,1.7270122720337677,2.4341070379274763,1.5071098122715205,1.335480024649062
1675854937879232406,0,2.4603528546700764,1.5370612597275164,1.1208822652406223,1.5601452158814133,1.7270116269227471,2.4327801278693735,1.508290069190891,1.3360326013092862
1675854937879428386,0,2.465585109495468,1.5272288049024751,1.1236416482529519,1.5487439928127704,1.7380082561089911,2.4567918288157076,1.498700827652332,1.334226068157341
1675854937879540205,0,2.463286507138973,1.5272429569536703,1.122862221279785,1.5244221092686212,1.7375126179679128,2.4747540685840828,1.490453319631522,1.3344826992784475
1675854937879997491,0,2.4662818187099385,1.5224651066900268,1.12005326945392,1.5229152351392599,1.738138761114528,2.4708935129249543,1.4919540176929613,1.373276028082859
1675854937880891323,0,2.5360934389289493,1.501102700984722,1.1167135531608678,1.524589851903187,1.7429009543874554,2.4649211300087823,1.4996291677333042,1.3773591836713726
1675854937881037712,0,2.558291695889791,1.5110965740344278,1.1090478711326677,1.5368784723717508,1.742353535011983,2.4693723975583715,1.516320643533877,1.3763236605675842
1675854937881451368,0,2.576822466191685,1.5126607373700893,1.115082388447113,1.5827305020609115,1.74640853406633,2.4807367558617237,1.520487496141254,1.4013337396235714
1675854937883180618,0,2.6246891791548017,1.5139214722639411,1.1259209764894111,1.6074624111305011,1.7508057363002205,2.4823293984064527,1.5269314234140026,1.4382604372373777
1675854937884434461,0,2.7415318278024525,1.5287261091201152,1.12918670498275,1.6290054149372646,1.749733157391194,2.4835980684931744,1.5388418098251198,1.4622547976094835
1675854937887895822,0,2.826518411737084,1.5296338821931537,1.1292148405237898,1.6310007176158423,1.7547566026525623,2.483348991487499,1.5431529737358587,1.4616484217852557
1675854937891035795,0,2.818762251834702,1.5303536235873947,1.1068145329573338,1.621858905047023,1.7593551750267447,2.4751544596478476,1.5395267782298108,1.4620193639364971
1675854937891650915,0,2.821918214157031,1.5346366819507766,1.1125040575207696,1.6212096489813457,1.7588247898387983,2.468570505395375,1.5364983228475302,1.4608968053705815
1675854937893436908,0,2.8217296010582165,1.5423194101814721,1.1090909185167623,1.6210415373630276,1.7573989078108887,2.480433691710922,1.536662299393972,1.4558461529891609
1675854937893635988,0,2.8273290095621304,1.7596834207157703,1.1652393976162745,1.6324164467170064,1.701578215327847,2.4771847223709016,1.5251406848389226,1.4523583037545809
1675854937893753051,0,2.8147432360183875,1.761269538611997,1.1638019854094606,1.6147417100553265,1.7075093891396655,2.478365664477913,1.5234109440152124,1.4506888837100682
1675854937893933296,0,2.8136855900694595,1.7602530358263202,1.1579109855795975,1.618490947157066,1.707697352612833,2.478894680860814,1.5184346965465532,1.449618948033777
1675854937894012212,0,2.8147432110357102,1.7588795630092797,1.1577999262907528,1.6177894481484387,1.7084438295368376,2.4786560405753835,1.5169900354220796,1.4570846377373219
1675854937894172906,0,2.8130572516617205,1.7585894146171877,1.1625924209336258,1.6141625870553336,1.7084499833402882,2.4768464382954836,1.5175424807550808,1.453788106261996
1675854937894275426,0,2.811219218917367,1.7602401810787351,1.1574406784775373,1.601989402230442,1.706668628266837,2.454593919643723,1.518715223305533,1.4525333802524627
1675854937894383668,0,2.8189117705002666,1.7477831206671788,1.1579381586992197,1.6074601514658113,1.6992321011617524,2.4314826376432275,1.5092202121757419,1.4535302166701467
1675854937894501686,0,2.8237346310204403,1.7503328484051541,1.1656624373163647,1.6123415995807384,1.691776389780166,2.4256141735110273,1.5068899271287415,1.4524295787863226
1675854937894579887,0,2.822009315828724,1.748622896444638,1.1613744639348755,1.6123051336070697,1.6943755087189352,2.425176415239662,1.4976423701631887,1.4482407508146706
1675854937894642591,0,2.8207536492771847,1.7512451945057579,1.160834555128621,1.6129644908236933,1.6953849586486225,2.422240110422528,1.5032628021037002,1.4501240747254178
1675854937894745111,0,2.8218431066246548,1.764308115362661,1.1610864017604368,1.6124661123693376,1.6995098208177712,2.421088827168339,1.5015859691153024,1.4501322580960894
1675854937896539926,0,2.8201420588891835,1.7633623296698242,1.1610419732410446,1.613160616606768,1.695214210871282,2.42474904489358,1.5000888789083904,1.4554871718192726
1675854937896870613,0,2.8182544110763823,1.7666413063086803,1.162090662073685,1.6067426129000935,1.6911044980360794,2.4296734270175935,1.495016324364695,1.4311755763499097
1675854937897175073,0,2.7905195204233633,1.766147610557107,1.1601510889209457,1.6102852560756415,1.691239334295096,2.4354884403336032,1.4940022741211587,1.4076211828995244
1675854937898255109,0,2.764163750720382,1.7621302828892098,1.1606854299701452,1.6072833451777702,1.6894204164332212,2.434952703822658,1.4970784190385926,1.3958781829306357
1675854937901615858,0,2.743864638739028,1.7630678152794523,1.161341565378162,1.6072877103881102,1.6873142818767128,2.4352030246982777,1.5066279573567845,1.3941591635950958
1675854937901765584,0,2.7266002216014007,1.769231482482149,1.1573533782194632,1.5991570636619545,1.687235663368758,2.4340331993004054,1.5072753857303205,1.4048320814204738
1675854937901987314,0,2.730325913296317,1.7716772825677822,1.1582033097616509,1.6039701242534798,1.6878903585987797,2.4327540086424015,1.5071798551742057,1.438429123078031
1675854937902128219,0,2.805622211248073,1.7718208151893484,1.1650641936182227,1.6175323647733977,1.6729524285679707,2.4331128528346366,1.5074313779374147,1.4410962569872632
1675854937902220249,0,2.8212120284521984,1.7704835682376823,1.1707582873029072,1.6240539495153312,1.6575466857742538,2.415187233526053,1.4963816325584496,1.4337093424519933
1675854937902284622,0,2.825372328890133,1.7663156804057762,1.1686939941850372,1.624636745683691,1.6586971597166151,2.3736497629378257,1.4963786395265672,1.4307055843940506
1675854937902347564,0,2.82291839925684,1.7664535492371152,1.1707886504577667,1.62646460185349,1.65871320625513,2.366520828096136,1.5001017507795649,1.438372095536706
1675854937902410984,0,2.8233929129086146,1.769991108836797,1.1850013609311953,1.6253823789807995,1.6603732667326052,2.3686066535768004,1.5047062658562842,1.4338564433482717
1675854937917191028,0,2.8277226426219397,1.7616677165172,1.1845850212528681,1.6251228759615985,1.6585357186655176,2.3716409038297717,1.4999212072742933,1.4300183810679634
1675854937919775485,0,2.8246511282882327,1.7609921696764574,1.177912086536918,1.6134538266302079,1.6594115735280726,2.3837011278102094,1.49897475575915,1.4337670361350527
1675854937919942140,0,2.8123530355021447,1.7590232288840142,1.1809367958377732,1.5867717111177437,1.6653751964775831,2.3836419802440765,1.5004552350065814,1.433073512017677
1675854937924220085,0,2.8216514555670265,1.7534695326872445,1.1767672190271414,1.6115511609799245,1.626949042741025,2.3978043897866868,1.4316114101758939,1.4299504707588337
1675854937924382448,0,2.821344566946662,1.7625135088739867,1.1766494637857539,1.610727569018656,1.6299390138480798,2.3772542099334255,1.4308840157261893,1.4145871952899396
1675854937924552917,0,2.8182070832208077,1.766371326172405,1.1750248446383598,1.6107835437134181,1.6203726406990129,2.369905582969329,1.4236590184832754,1.4081333614804543
1675854937924619674,0,2.8173370796428276,1.7666714672099826,1.1787580814294227,1.610853387537509,1.6149933834319279,2.3696785406464915,1.4139841697795206,1.40813874932702
1675854937924682855,0,2.813453698210926,1.762509739417531,1.1785571675441668,1.617764390042194,1.611071747948863,2.366670873799014,1.410228165604185,1.4055214112808487
1675854937924745798,0,2.8169040481049126,1.7630254910794552,1.1773190073386566,1.615549066410082,1.6125896603471614,2.369895413996822,1.407837795938043,1.403573265093813
1675854937924816370,0,2.825622272828775,1.7532717259141726,1.1724584306937953,1.6108906899749662,1.6205210693912402,2.364384514766693,1.3873827794811127,1.3782933981696355
1675854937924880743,0,2.813389346589297,1.7527632349337063,1.1609926145971319,1.5904477736229763,1.6354142459750887,2.3632895724898555,1.3824667795078032,1.3753587561774
1675854937924955368,0,2.761604362643359,1.7485108953118074,1.141301823314013,1.5616333323633813,1.6686162211037388,2.45254058902874,1.3890953454484989,1.3823094617746445
1675854937925018072,0,2.7572341540416616,1.7615276511297737,1.1517266295890374,1.5585136057437647,1.6863148746790646,2.5303339757722223,1.3731269541057936,1.3655843405134205
1675854937936054468,0,2.754118478647413,1.7679505857391884,1.1534384961554751,1.5586021691367131,1.6959606239641136,2.541927011585661,1.3734602951948671,1.3646125962922737
1675854937937293291,0,2.7569137099302616,1.7676776109978678,1.1554003323976183,1.5615862723859875,1.7091266771072569,2.56920808119475,1.3727827848654797,1.3635488400419953
1675854937937426090,0,2.7594184648842237,1.7515710481819915,1.1463454282564192,1.5548068581843881,1.7131443035760205,2.569117426868581,1.3596304281968696,1.3590752021765737
1675854937937487602,0,2.754203055594279,1.6625714421670121,1.130561321157131,1.5922491771947638,1.705115183369354,2.6120597860786026,1.3491908837009952,1.3622252812310103
1675854937937590360,0,2.7397902053505705,1.6259554287373617,1.1259214701437015,1.590217941800409,1.682837243903176,2.6207635661627955,1.3484719362513538,1.3585904818084868
1675854937937647819,0,2.734710888737972,1.5996158733128403,1.1122333233195894,1.5900828385622574,1.6515146377402024,2.604653293250402,1.3514818374971937,1.356462464248755
1675854937938126325,0,2.7067493885334306,1.5997772629862812,1.1108709701149426,1.6158792146842897,1.659235201488708,2.6082577812978642,1.356561025323731,1.3650507288176443
1675854937939548730,0,2.698148547461824,1.604347023537472,1.1115878360095843,1.6160263413500975,1.6604609445963228,2.609425426843328,1.3565490714529689,1.3650188194564212
1675854937940839529,0,2.7055720563622065,1.6023936636140104,1.119594721832267,1.6230704045857496,1.654300232530232,2.6109624510515705,1.3554900055295904,1.3680642729160601
1675854937945112466,0,2.700588137912487,1.602031163572758,1.1197005055574054,1.6386172976253957,1.658677525118667,2.610391000484243,1.354984192460201,1.3386906644568128
1675854937945294618,0,2.6208496944818775,1.59111843214318,1.1171023287252195,1.6018840646878014,1.5825860471768651,2.6055228031297903,1.3245840840787861,1.3395719148104137
1675854937945383310,0,2.5827752380105515,1.5915658877334211,1.1154929241562155,1.587708185942735,1.511293405436714,2.606348140380558,1.3204918169731887,1.3386600705135014
1675854937945498228,0,2.555040856964303,1.5950105172016236,1.1181035495758542,1.5824039878614429,1.4967477414775023,2.6100032134111446,1.3217853780289894,1.3379305746823682
1675854937945610523,0,2.5563469090528854,1.5985747125339118,1.121609385985871,1.5821227419216566,1.5214163779081664,2.619364216717511,1.3273688131030827,1.3436698147646717
1675854937945777893,0,2.5559094986383357,1.6089973050504924,1.119584398304991,1.5767790402222641,1.5230909879121617,2.620084761053306,1.3288468189757334,1.3457772324429784
1675854937945868015,0,2.5671450045259303,1.6085006214630577,1.1192146499152005,1.571868072453263,1.5347671264695297,2.606582800973688,1.3290587758051526,1.3624765864895916
1675854937981426954,0,2.6008481984813825,1.6061171681259592,1.1189712818232802,1.585159925888332,1.5378342798275535,2.595401837062753,1.3271359768196165,1.3655467795156402
1675854937988096714,0,2.655392761950255,1.7038142676069035,1.0931811001686007,1.667659369862945,1.726966207181665,2.603865654670014,1.3387576849729645,1.3730343486896353
1675854937988394021,0,2.659511744119097,1.749332771409733,1.104740766580281,1.6936034408938119,1.7138003631656271,2.585519180021166,1.3384273535001745,1.3833451997598607
1675854937988550186,0,2.653453665549389,1.7550559862358381,1.1055917273048015,1.6910552638658942,1.7133249442044194,2.5813968346138583,1.3381943282087179,1.3492835361604403
1675854937988611698,0,2.625661423372961,1.7547096790419607,1.1056302602724664,1.6939587586388494,1.7261340828364864,2.6973854814608482,1.3326320495532196,1.3350625754281793
1675854937988682270,0,2.642710937187456,1.777286627231506,1.1107904371643358,1.703339862522379,1.725227688941647,2.770115825959904,1.3307062233733975,1.3419510912066288
1675854937988740205,0,2.6402484954987817,1.7813966824816663,1.1110317680482151,1.7041682752026162,1.7254414426543365,2.754448628070696,1.3304399808808547,1.3431838895734896
1675854937990867376,0,2.6416437473874876,1.7674220620287984,1.1085801690109587,1.7030539749738562,1.7358910601760569,2.7356309188504824,1.333527656331762,1.3436024724531859
1675854937991055250,0,2.6318153690290287,1.7601110322625726,1.115573518582623,1.6951633799098909,1.8550083562826742,2.864871666609376,1.3480737629264612,1.3559806122060671
1675854937991132736,0,2.6323816548720878,1.7638759843933804,1.1290365218930476,1.700174431170128,1.8820143807452845,2.9150114715468485,1.3660690993401676,1.3550722237187662
1675854937991216182,0,2.636972489900652,1.7649741734201627,1.1347617638917495,1.7173689538188333,1.8748689736658015,2.895281554765834,1.3660112668462125,1.376205279362721
1675854937991374254,0,2.6427652362873952,1.765424392143262,1.1347053893267884,1.7405191794833672,1.8755826836005542,2.890494077845692,1.36421721970666,1.3761142985829204
1675854937991439104,0,2.6212014794290557,1.770546986501335,1.1292707017112298,1.7302054784711345,1.881728325035119,2.889024731655317,1.3674705160702536,1.3964786858063176
1675854937991494655,0,2.6743953185262757,1.7851718107206054,1.1288226763287537,1.7316419948128363,1.90064706868191,2.866215357039617,1.371076889204728,1.3909637186479262
1675854937991549491,0,2.679736795275479,1.7933235128972806,1.1222203549323497,1.728993651090985,1.9008073051269812,2.8656038793609606,1.3528399417093129,1.3877493096602362
1675854938007102251,0,2.683518920594482,1.785225583552743,1.106332568850659,1.7332154347386877,1.899355489773082,2.8653708433471463,1.3219849527531136,1.3991319905995059
1675854938014919757,0,2.7321472273087752,1.7825558793983682,1.1084055623681939,1.751789676970035,1.8996316431406182,2.865714616552938,1.2952532884249572,1.4266716595037396
1675854938017315626,0,2.7878645919499423,1.7767714736583544,1.1180940456537491,1.756197807920017,1.903155076627927,2.8632723859714853,1.285276058743155,1.4450177302833074
1675854938019332885,0,2.828312941951977,1.768961317630143,1.1253049750452495,1.7480924972005554,1.9033617699324048,2.857501200721711,1.2765523210977698,1.4300567264037083
1675854938021915197,0,2.805639908181028,1.768578398829457,1.1241181630058148,1.7188073505399406,1.9059724546255874,2.8615953573443647,1.2672345381412997,1.4040050645876243
1675854938022356510,0,2.7112243104055054,1.7720094516913882,1.1151317816745097,1.703131503093378,1.9047796844920595,2.857137945975571,1.2644223910199301,1.3929431317946852
1675854938031289339,0,2.646614151685837,1.7753227230903972,1.1123734866267012,1.685759527449161,1.9057796163298335,2.8570773669558593,1.264920065516897,1.3929877713548477
1675854938032211780,0,2.6445467957860074,1.7781713798893004,1.1123219165481062,1.6823443196374628,1.909268687992113,2.8518229399837707,1.2593686399666426,1.3893590537526785
1675854938035617828,0,2.644172740373892,1.7812525175311915,1.1176905681108507,1.6808362179974266,1.9099998511154685,2.831558699493112,1.2604516139096935,1.394867427075596
1675854938041285991,0,2.638899885249479,1.7752699388756528,1.1160228872404685,1.681185069717737,1.9102532255239295,2.8143015104259397,1.2728873244290562,1.4015926375636854
1675854938041475296,0,2.6426625579420446,1.7724247042845316,1.1143208410191943,1.6884567339803622,1.9074230739357767,2.802089976934904,1.2636900126318198,1.3982483714737017
1675854938041598796,0,2.6414014409105366,1.7657334591596001,1.101823716275491,1.68809455902401,1.9073325737639946,2.8002574259719637,1.2679029800960255,1.3977445181321357
1675854938042131185,0,2.6372462685457054,1.765832508617825,1.1018618031432585,1.7047971581401111,1.887589883533726,2.76052383099636,1.2525838184188085,1.3895492804804948
1675854938045761823,0,2.644210008685543,1.7701382870406852,1.1026057503298712,1.7042584254248456,1.8395740538857108,2.708823570361785,1.2232535995108533,1.3805343367563145
1675854938046013116,0,2.6552790252649907,1.7695668242056497,1.10967399148487,1.7044618788177048,1.8392283017715059,2.719564582811725,1.2216053337021486,1.3898468065930922
1675854938046162605,0,2.6598238428533447,1.770768750607856,1.1152250875991703,1.7024912239664245,1.830489749719769,2.7074477700245967,1.2201035231316915,1.3892159100695558
1675854938046376466,0,2.6612881166294358,1.7732712591382502,1.1108670326409857,1.6931855896583967,1.8232803793208727,2.7024939919475655,1.2344805598543784,1.3880813094988966
1675854938046446561,0,2.6600334380240866,1.7777831934666035,1.1191133035288088,1.699008625011714,1.8220405445843857,2.7393876879925605,1.2345679231839093,1.3880370202784524
1675854938046508789,0,2.636722554962815,1.7688495717311314,1.0902054750792947,1.7202867414756968,1.8511222998625578,2.6329703776344138,1.2198475491947056,1.3666542811063753
1675854938046576738,0,2.6354743010036072,1.7605905461286933,1.0992351737539185,1.720133385410066,1.8441964474896961,2.6191521400577704,1.2204544701487534,1.3676593819277822
1675854938046637296,0,2.625216455129868,1.7603579177774862,1.0994121163775963,1.7306982367428447,1.8673919945349022,2.6221933314207555,1.2186893541092005,1.367488892010772
1675854938046704053,0,2.6234135711080255,1.7613029683283417,1.0987355493742934,1.7213405703105835,1.870295325884786,2.622313581266274,1.2188765809279711,1.3655214457916294
1675854938046764850,0,2.6249837411978048,1.7518156918695802,1.097553371468167,1.7365977872832112,1.9312452412858305,2.596806770634414,1.2188287036070065,1.3582193833883498
1675854938046831846,0,2.6284427457310287,1.7535224224189705,1.100182644161044,1.7360159385941498,1.9378409654709734,2.643817472538289,1.2356873532884214,1.3849222453312813
1675854938046893119,0,2.629780056294791,1.7073218696890846,1.0976111927304373,1.7601578447967272,2.0073940012213436,2.7018963264036575,1.2235314855293251,1.4134241606736786
1675854938046959161,0,2.631719278958573,1.65473569226342,1.087058103357429,1.776990317999579,2.064851461798603,2.711879480927257,1.2245651761700682,1.4140172252092453
1675854938047021865,0,2.6309304679516026,1.666700932385167,1.0869298334138637,1.7695687583424407,2.1338873645177734,2.7070831258808776,1.2269641245612313,1.4219395433532196
1675854938047081232,0,2.618368326915744,1.662701189171036,1.0896079027641072,1.7679366845577398,2.1352798305897407,2.720947435037406,1.2170851441180701,1.4355094729586295
1675854938048393964,0,2.626709632897242,1.664049931274099,1.0936103128825199,1.7679460654157655,2.152872715704566,2.6986582444544527,1.2180730307270025,1.442533576606049
1675854938049701452,0,2.6343013720624047,1.6626667997869338,1.0927825302745573,1.7769027684974443,2.2233680680486487,2.700837376086882,1.2105186294112702,1.4773192834087476
1675854938052571296,0,2.6658459277348783,1.663376066398654,1.0883907790987093,1.7827397220591268,2.226879990313234,2.690863544534083,1.2070561701437412,1.4731963972863125
1675854938053955078,0,2.661944303776202,1.6759851295474277,1.0742541476730596,1.8019841402161016,2.246689027451884,2.673478025193563,1.196148966270642,1.4780809780274295
1675854938054067134,0,2.649536135283827,1.6781690933135684,1.074951698437711,1.7998956625331002,2.241382104510473,2.655227318337422,1.2003663175553811,1.4779863657874435
1675854938054239034,0,2.640787739606191,1.6796034650110752,1.0810837211270228,1.8105374226942186,2.2422190554313968,2.6825097920804173,1.1982879983172259,1.442390702744215
1675854938054303646,0,2.573373760422145,1.6782294827038196,1.080030291140254,1.816743418575928,2.2438094559279267,2.7010453071879867,1.191892073767627,1.4416403476030528
1675854938054365396,0,2.5525712349688,1.6672272777470687,1.0825867140774565,1.81099492668724,2.250838919772009,2.722407784397936,1.1811490620880314,1.4446837155870205
1675854938054427146,0,2.5340877000948536,1.6757607229025573,1.0825664571322111,1.7707545996890404,2.245806327482059,2.7257254197093275,1.1751543257077524,1.4323763668804592
1675854938054487466,0,2.4764807392473873,1.6759762819452424,1.06933240460445,1.7404143092696052,2.2425475933008228,2.7493459867011634,1.1678410330491904,1.4128929465232312
1675854938054571866,0,2.34434282271188,1.6766879506055512,1.0656487966519153,1.7187644047982862,2.2437309439238957,2.7474967653703892,1.1503479890426649,1.3898983845464479
1675854938054642677,0,2.2454302814128697,1.674418654376234,1.065121540724711,1.7159941793759659,2.313231041416633,2.953937804565972,1.1674089672093957,1.3993450093960673
1675854938054697513,0,2.2967263236240676,1.688652157986279,1.068441065701366,1.714145194958412,2.3108581995944637,3.0197426099783784,1.1870487987801939,1.404359917545368
1675854938072285413,0,2.318694540492205,1.6855861076519976,1.0621600337132868,1.7142702843681605,2.3163918006794963,3.0226327082294495,1.1892127454741581,1.4058721700325796
1675854938074840068,0,2.3241379975167114,1.677517978792665,1.0747306208285685,1.7148868100589456,2.316388506231962,3.0160010229809786,1.1951258258251019,1.405250162660821
1675854938086033105,0,2.320670773799934,1.6968631503792933,1.0708568485301824,1.7140649551850649,2.3148508896572713,3.045861423203178,1.1972404447363874,1.412781730050093
1675854938086220502,0,2.290867924939762,1.540802698244023,1.0286156874062158,1.7152052924754544,2.3018410813779844,3.052359210389523,1.1949245575916825,1.4124961904709896
1675854938087825298,0,2.2901540735111108,1.5065233113450758,1.0206579115586443,1.7223731861936595,2.3014634460001653,3.0540003531689197,1.196222548820025,1.4210999498632055
1675854938088927984,0,2.284654548793345,1.4927926180103843,1.0171850378412808,1.7217319808484648,2.3047185969004946,3.0526441585933903,1.1996298212657945,1.4217848235662105
1675854938089120626,0,2.284817563648723,1.4916195475597969,1.021508466791269,1.7190567549231477,2.3044187348529563,3.053508758625927,1.1978878209194457,1.4354326693027293
1675854938089212656,0,2.303046759925147,1.4891609925364504,1.011671872909491,1.7213261641552433,2.3120246880194895,3.0533808920983416,1.2062116400159786,1.439769917376949
1675854938089284896,0,2.3108988455600583,1.4938772925148809,1.016861025675055,1.7368459857313865,2.318651211042394,3.0491723606267103,1.2022471704672577,1.4347801310362835
1675854938089354991,0,2.311497371613463,1.5009685371240413,1.0242293928933437,1.718629335668247,2.327470964818659,3.0486114885064906,1.2027082061164516,1.4352165254721747
1675854938089423894,0,2.3291608280105454,1.504043991136179,1.0276318744106077,1.7117961327955535,2.3284189575474756,3.0484838946127883,1.1978202164223444,1.4638640539160261
1675854938089583873,0,2.363171119504096,1.511737827148514,1.0402447073355845,1.7194990338341498,2.3386652212572527,3.0517661402178433,1.199023557521014,1.491769624130014
1675854938089654445,0,2.36314584391802,1.5127428491717048,1.0400060670425757,1.7184795134628439,2.343892285515678,3.051585558695748,1.1932887983522802,1.4938925416342022
1675854938089826345,0,2.3850563601097985,1.5140758178808904,1.0451656865138301,1.7178322682030218,2.368336995948989,3.084723180257838,1.2074832969827332,1.5089176783506828
1675854938089912176,0,2.3909794579766013,1.5220918943618118,1.0610782511127836,1.7219319739410517,2.369699456802294,3.11287911750445,1.2268518834233082,1.5484073368488787
1675854938090000867,0,2.4153358878372955,1.5251983247157475,1.0760316080609313,1.7265977344673977,2.3730284077288504,3.1135860588455704,1.2307652089718786,1.6170103319761737
1675854938092961549,0,2.5467856755494807,1.5237505399937434,1.0791903913288503,1.7469858985916447,2.373624325481032,3.1154052714067446,1.2291141599019255,1.6686296960129503
1675854938093501806,0,2.651430504046265,1.5288111036018825,1.0783472922559378,1.765099486541388,2.3733765163387837,3.114501760457054,1.225796118511327,1.683586252157214
1675854938102535963,0,2.713468358806648,1.5071868738319452,1.0864145916671295,1.7319974498214654,2.3979981614848684,3.1755975295040275,1.2521043258393423,1.6805422389575275
1675854938102743864,0,2.7074253192620703,1.5069644876138268,1.0850493438991375,1.7375879717809057,2.398615321286109,3.175418795498234,1.2521508017768765,1.6775860064548251
1675854938102794647,0,2.7060785968421706,1.5062904047027872,1.0877943541708641,1.7660542616069916,2.4093884192602086,3.1839703346040245,1.2523516802372245,1.6768185184577042
1675854938102849483,0,2.699459487636519,1.5083429348833188,1.0871283918102181,1.7743031077659988,2.4108713265696955,3.2017146532632363,1.2492402395357731,1.677600017649842
1675854938102935075,0,2.6911271982485068,1.5201807821031785,1.0860004151230598,1.7730186122541367,2.4303365149740244,3.2201702170465607,1.2493748239726894,1.677462852471434
1675854938102983951,0,2.6904423527028234,1.526750207920002,1.0859976294820841,1.7836560006382534,2.4820730142014,3.219727691185388,1.2637698340282761,1.6799062318879145
1675854938103038787,0,2.687940009258572,1.5326023300935312,1.0861870674649676,1.799923887579212,2.522009006725737,3.216439161251159,1.2637305646945793,1.6590980366862447
1675854938103087902,0,2.6077847775558554,1.53792703174478,1.075846914848606,1.783274351489233,2.551964075859411,3.2177209608876987,1.2634312345514604,1.6687486843898656
1675854938103171110,0,2.588812575256258,1.5391149597258973,1.075383560180695,1.777667625710153,2.55371830680717,3.2165358334119096,1.2660055938572399,1.666216242438046
1675854938103229999,0,2.5920223838334144,1.5388742866168588,1.080648293974718,1.7866525600931522,2.5524078885407016,3.220153744844312,1.2778778851314367,1.667905419413829
1675854938116848707,0,2.616776074615023,1.5367938914805743,1.0922058908024561,1.7816625063875797,2.5537680681673196,3.2312021654427943,1.2750622775013938,1.6660787808521602
1675854938121526479,0,2.6301019001720802,1.529374601020848,1.0859904346632918,1.7823976266352244,2.564631682514374,3.2271315955966497,1.2675626319554723,1.678136108995848
1675854938121870756,0,2.626077950510953,1.5239366237973053,1.084887155948454,1.8446184160560597,2.5895137061306572,3.248720267900136,1.2663308409289653,1.678497114382949
1675854938130053043,0,2.6279601840315854,1.5367547053401815,1.0790873509770844,1.8484499480297347,2.589930875045639,3.260442943294199,1.2819397027172512,1.672609067042922
1675854938131081104,0,2.6244308738282327,1.5449681792452759,1.0892234273374861,1.8529767662121412,2.671351534762759,3.276665511853089,1.3067129154817354,1.6764925494560883
1675854938133490324,0,2.6199305486041014,1.5479166323066995,1.0912346581459322,1.8534540541031335,2.7113407312554445,3.267788035654609,1.3020993312522824,1.6745210306009344
1675854938133684635,0,2.613005974364844,1.5480244143560675,1.09184770921952,1.8166169188639838,2.7076609351102823,3.267303416918422,1.3008911362948976,1.6799814930965267
1675854938133743047,0,2.614876404814004,1.5479116719350354,1.0904323869486185,1.8124950896608323,2.702465793585446,3.259320063383158,1.2915452637972868,1.6741218704831309
1675854938133811235,0,2.6199017651812344,1.5480886100156983,1.0896964794100246,1.8193372856599306,2.6981190934158312,3.2559518602720288,1.298455954075523,1.672715763303921
1675854938133872270,0,2.6384119231286376,1.5403625777695855,1.088482399596319,1.8252911060547765,2.695747650259656,3.260327293883223,1.2934362173772929,1.6717493236665542
1675854938133931875,0,2.6407979517534583,1.5355514941209985,1.0939577790638613,1.8268142483934091,2.695651225021695,3.2600414992086453,1.2962681466050732,1.6751066465070257
1675854938133990287,0,2.6449454529688388,1.537389138101149,1.0930251714626245,1.8322646056626675,2.6924866952928306,3.260489865766201,1.2980866413322296,1.6790608066161883
1675854938134065151,0,2.650890372860976,1.5362741413778445,1.1041991151199257,1.8626512641710264,2.7158406899570426,3.261708650259286,1.302326654208917,1.7108343584955945
1675854938134230375,0,2.6513299362248826,1.534809862623708,1.1015080382832034,1.8791163365153516,2.743092718656468,3.25725571711795,1.3016057123802416,1.7152030096542945
1675854938134304046,0,2.6378935630848037,1.5349151624341846,1.1110555400117472,1.876510862223108,2.745591299336036,3.25498822216799,1.3001997661650055,1.7151336374591708
1675854938134372949,0,2.641927700879958,1.5338646374574285,1.1106659455041676,1.9079013231777682,2.7393916685335093,3.2591758134369186,1.2964172955047932,1.7166017856171343
1675854938138641357,0,2.6426179499687934,1.538688323007393,1.1082054619813164,1.9138458593469843,2.7264526535660707,3.1942485962961604,1.290235185302522,1.7154192007120355
1675854938140328645,0,2.6435807876232547,1.5269882414377922,1.097317627027525,1.9290775499751078,2.718268052912214,3.1317436978958364,1.2866170998846216,1.7126052378028063
1675854938143371343,0,2.6477788858255678,1.5189732523645134,1.094237315152092,1.9300399863041522,2.7433055643856785,3.1252561146658113,1.3050981637496606,1.7124321339750024
1675854938146632909,0,2.646085787115833,1.520214811501483,1.0929264285172131,1.9303128270160466,2.7721079126502617,3.141792831700472,1.303203006166725,1.7162453545705498
1675854938148370504,0,2.6439402139173063,1.5235518071684007,1.0979924799650906,1.9327371004156022,2.775180384572044,3.169614196075928,1.2948938754627506,1.7188236566412145
1675854938149863719,0,2.65221458228386,1.5235579206043972,1.0959602781389142,1.901855189408714,2.7801037845269954,3.1630412510938792,1.2905925066547155,1.7202118221185292
1675854938149938106,0,2.6559642233910057,1.5150181542457812,1.0957489335158108,1.9028834741524634,2.782589692756424,3.1554184855908662,1.2957337304297005,1.7192436279357113
1675854938150048255,0,2.6542411635386425,1.5339995196488896,1.1013449558449329,1.9033786065114386,2.794473586234855,3.161578690463392,1.2974139310729529,1.7243577437761155
1675854938150083303,0,2.660133749950853,1.6082656659393022,1.1244128089592529,1.8799029988667861,2.7919466756017144,3.212230272953965,1.296597483189261,1.7149437058830597
1675854938150113821,0,2.6823818824357195,1.6243359274165898,1.1238604872677798,1.8833334577436796,2.7927281409291265,3.212070024473031,1.2986420369496676,1.7183149169783511
1675854938150142192,0,2.678684660846024,1.6249912489452873,1.1187574986913746,1.8803332502480634,2.814532146516942,3.210724235691488,1.2965969862362898,1.713367444026189
1675854938150170326,0,2.7761870847204997,1.624994948147744,1.1256239038125262,1.855955489631825,2.841777782089492,3.2126267752224784,1.2985789857047954,1.7159143120498301
1675854938150197982,0,2.831099634388257,1.6274229363449297,1.1341197619551036,1.8562613855603516,2.8539179034790356,3.235602625425269,1.2995304317444851,1.7269660561635372
1675854938150225639,0,2.8321411805177497,1.6271393214649137,1.1371484844190975,1.8561397286730135,2.8568706761195592,3.253569930511374,1.283080972466282,1.7316276700968392
1675854938150252580,0,2.844038345439741,1.6282355042643708,1.1328917066910493,1.8577392444199494,2.85470207877335,3.2781242695285266,1.2769578489197164,1.7457797138929274
1675854938150279521,0,2.9271599511792226,1.6420329416111377,1.137649549982579,1.8607565496345535,2.8475960585081377,3.2787272687432463,1.2704175911948559,1.7418439758889488
1675854938162258386,0,2.935904996875912,1.6373112843894913,1.1378326736123388,1.86036419339803,2.8484432948208416,3.2775974191454997,1.2737285883754634,1.774531271205118
1675854938163562536,0,2.9560236973997154,1.6375241691552442,1.1401929864321683,1.8751182666122843,2.8747436600242278,3.333918300985055,1.2750933615100182,1.761826453582172
1675854938170789003,0,2.969033203297658,1.6474390352269206,1.134483608513963,1.876341369253836,2.8874968603814826,3.3542447249637215,1.2749841025744573,1.774614793018081
1675854938183231115,0,3.004058085214663,1.6490678579447138,1.1326608877474167,1.8420478672838385,2.8505613229365308,3.3539708726081745,1.2713184421370598,1.7890850918219605
1675854938183652877,0,3.035348209147245,1.536988764249015,1.1478114678980351,1.8331176638115945,2.7735740184288042,3.3449930521903832,1.2634122271522008,1.8000011919364942
1675854938183830261,0,3.0813625991263756,1.4849579146579042,1.1370144816463525,1.8431180994380978,2.7678928802913023,3.3454275819920483,1.2634338770157438,1.810193485921163
1675854938183984994,0,3.249188818953989,1.5732740830237728,1.1682859032394612,1.8501738206198375,2.7679637957791865,3.380557449707479,1.2686090716098526,1.8106462530231038
1675854938184136390,0,3.2564141302506466,1.6117535592550827,1.182881209325446,1.8465205890037761,2.7609304148658134,3.289981439943385,1.2916181961974444,1.8230658961642088
1675854938184513330,0,3.2387195747749997,1.593035266109412,1.18062120420769,1.83799459280729,2.760484939920745,3.2197038336727037,1.2913710607184996,1.8218010155285098
1675854938184670686,0,3.25474686239919,1.5845598847212543,1.1796701983797835,1.8370002935308813,2.7596515492725193,3.2134733633171706,1.2921702486746838,1.8254022807918686
1675854938184791326,0,3.2610723682847396,1.584566857129424,1.17909050261121,1.835799162898377,2.753111238416154,3.1969553561934796,1.28891846675087,1.8255265516154282
1675854938184972524,0,3.260552533412494,1.5846744336417928,1.1794661933063848,1.8360525496050344,2.672524746420159,3.068042297880958,1.274183199297117,1.815571281544993
1675854938185119390,0,3.2592246724383966,1.5755404729855218,1.1637136319934611,1.8298060259764064,2.653464745654524,3.021374595408563,1.2549366051048603,1.8132353516805526
1675854938185239791,0,3.2547628090562113,1.5696080408520992,1.1636071007990478,1.8137936428498638,2.652473286229192,3.0198392671285803,1.2607008082582358,1.7978280700320057
1675854938185368537,0,3.2349232598950963,1.571898117692774,1.1680755055310057,1.7891349687898312,2.651732204841813,3.0166563834158717,1.2722824423683272,1.79895852658813
1675854938185529947,0,3.234323274832641,1.5666502092205596,1.1694140660946242,1.7886795095993677,2.6452328544887562,3.0150752291509204,1.2682519919543116,1.7796920527632758
1675854938186145305,0,3.1912426375082212,1.5498344649946254,1.1800245711828337,1.787415664319567,2.6317106685240885,3.0149138884536075,1.2625076891454772,1.7792002726979848
1675854938186955451,0,3.1866785590681754,1.5388809375524775,1.180030619877049,1.7916949509939477,2.631744183091671,3.020427380877574,1.2500863558866122,1.7791769387340006
1675854938196310758,0,3.1383564498804977,1.544194662857821,1.1726158995564995,1.7710524695952996,2.633476010775957,3.0280653035928844,1.2460546305940061,1.7413149535288406
1675854938196579217,0,3.080696938437322,1.5444561572397464,1.1628723331776714,1.7675145794782552,2.630842152858681,3.0274935926998765,1.2456884825634096,1.7336883594873844
1675854938198440074,0,3.046353953399306,1.5447146381329244,1.1558032884616147,1.766596434325393,2.6309441733058874,3.02721660148097,1.251156255338193,1.7302513408109361
1675854938198620557,0,3.0494834569984373,1.5450343748866875,1.1575333928546743,1.7681867647267486,2.6321579718815893,3.0229625609312993,1.258030149597173,1.730411062478621
1675854938198683738,0,3.0569159334520637,1.5392418489396036,1.1646503533964008,1.7679882026001397,2.6345707608064606,3.0222582015721544,1.2715000339058296,1.7305546762528177
1675854938198732614,0,3.0607197387668075,1.5360977487602083,1.175027192803099,1.773803607062972,2.6357783489043487,3.0222746063654684,1.2708933570341734,1.7309487996085469
1675854938198777914,0,3.0672012338700037,1.5389258677671231,1.1828913072227212,1.7881614224749605,2.6496213352725295,3.026401561329757,1.2688376932862981,1.7324073597860625
1675854938198821783,0,3.066933118827794,1.536372644306849,1.1777496124170863,1.8082187653867468,2.6664562244717764,3.0249926633544675,1.2677441243319874,1.7327880808127956
1675854938198959350,0,3.0664868450702807,1.5337204448299704,1.1758917766250865,1.8094211464104029,2.673296739387072,3.0228089685248465,1.2568059831244698,1.7277937636086569
1675854938199012517,0,3.074106522805985,1.5342774294476045,1.1728830022825558,1.8024924268977602,2.688354254991327,3.020869162928723,1.2497908115694882,1.7269641216409883
1675854938199059963,0,3.082093323363293,1.5334179837199737,1.172044012324763,1.8025403858382216,2.6917647284753845,3.0281677180594704,1.2515519282551444,1.7280665671548459
1675854938199103116,0,3.0793672050114655,1.5381119372369156,1.186026445955553,1.7931486266183145,2.693985372903226,3.0780692468414683,1.2517193349885867,1.7477151761437397
1675854938199145793,0,3.068403987902933,1.5340972691969645,1.182255726804736,1.7920512158812976,2.702716423018766,3.0815913840022957,1.2624119649792835,1.7474749665126352
1675854938228213548,0,3.063873105457429,1.5440162939985678,1.1755715336918553,1.8138661632261177,2.7026909422147285,3.072137058008388,1.2621763473230307,1.740080442416376
1675854938229465246,0,3.067976498981942,1.5436799910299852,1.1707545970048467,1.8170152441322107,2.703217441901208,3.0720743774259045,1.2634098953821125,1.7396750064692357
1675854938234796047,0,3.064441706721146,1.5284288869067808,1.157626227674777,1.7976697114792164,2.7195319071494115,3.0206229240467994,1.2578256040490066,1.7367711182217211
1675854938235131740,0,3.0594947313729257,1.5170169842253136,1.1607314979649446,1.7964106198930234,2.685394902307325,3.0118410281129604,1.2564853960546394,1.736676731219263
1675854938235217094,0,3.0641614701442705,1.5268299467609865,1.1639500294389158,1.794709530648469,2.6844725794423345,3.010056860376373,1.2367799299534175,1.7367412707791192
1675854938240408897,0,3.0641368526677293,1.533535046656122,1.1589119095142626,1.7943373705548082,2.6816641364919187,3.0097758412509683,1.2401869889088788,1.7357489769859755
1675854938240526437,0,3.0662272029649675,1.5386101167485995,1.164231839391952,1.782740253472092,2.663903594763513,3.010510898563378,1.250768635090813,1.7356166555593822
1675854938240672111,0,3.066626388743858,1.54265912152126,1.1692052577829977,1.7822825438700036,2.667018281980886,3.0155052033064975,1.268710764068166,1.7364025732271813
1675854938240718603,0,3.0657604782250756,1.549462184847995,1.1708306551178906,1.7699072597627339,2.613160531639997,3.020775999851946,1.2738242717999586,1.7371000717250349
1675854938240758419,0,3.056767259578266,1.5624499123660631,1.1678166632765143,1.764608945790873,2.627743419569329,2.976379445200723,1.254596482901696,1.71600529791546
1675854938240796089,0,3.0560170058224223,1.5713226052821645,1.17308062205288,1.7398751394161767,2.5881531333878955,2.916970897990993,1.239054208851091,1.6961867666049613
1675854938240850925,0,3.068647907502938,1.556040261493545,1.173294559964119,1.7206798425369871,2.532181731390504,2.908851629453753,1.2397808567793434,1.705443972379829
1675854938240888118,0,3.0889892598280024,1.5379885449620971,1.1716765314572752,1.701222817295666,2.4256499176245754,2.872524798355265,1.2416329963264798,1.6530577924310879
1675854938240923643,0,3.090134770065952,1.5341310386725475,1.163733603035694,1.7179019296555473,2.423615411757731,2.917430907872912,1.239511592894561,1.656272774629053
1675854938240959405,0,3.086938356501518,1.529608117327389,1.1615548318415039,1.7274215371266308,2.4241551278899434,2.9209983502359607,1.2432657879938642,1.6558805535928764
1675854938240994930,0,3.0871427476068285,1.5365100751400567,1.1733270975488321,1.734277352797233,2.4280824918663932,2.9216639486218847,1.25247868511155,1.6557695288465644
1675854938241028785,0,3.085324933931412,1.5479301394578848,1.1684996191873258,1.7227654910111136,2.4268214700114212,2.902425002845091,1.2568563829975006,1.6592585767613754
1675854938241063594,0,3.087427799941012,1.5447369177054666,1.1731259851887448,1.7140134872066353,2.4252161438608977,2.91069985781375,1.2583277360805958,1.6627203161235584
1675854938241097688,0,3.091164339270614,1.5443231006923703,1.1711214879196572,1.708818652783797,2.419771481873361,2.884776346662535,1.248531110179834,1.6639431273127157
1675854938241132020,0,3.0946432400532426,1.5350659323232414,1.1654106246180709,1.7094174518857284,2.4224068123191302,2.899574090148446,1.2497764097636193,1.6532483505746736
1675854938241166353,0,3.095717236917711,1.541714244485872,1.1734272343903553,1.7180968342457763,2.423637145860324,2.938627666395928,1.2467265460263743,1.6378427884876015
1675854938241200923,0,3.097562347389858,1.529130580010913,1.1809470259365684,1.731478360176567,2.4230986281667324,2.96674142053475,1.2646548449079706,1.6344382471358134
1675854938279760837,0,3.0925716935635132,1.5293092338964536,1.1814916828474311,1.733192953650094,2.354388700292177,2.7808280516147748,1.2442116233281886,1.666666225069358
1675854938285640239,0,3.0890551166931592,1.5134821421251763,1.1775432476970795,1.7348132021208467,2.358462020573367,2.7090486844418478,1.225714370369701,1.7234953558835828
1675854938285946846,0,3.223091166928922,1.5125328853972786,1.1896351269953278,1.748573274235778,2.382529931758424,2.7820163784548817,1.2503545482931024,1.7294952462311028
1675854938286212205,0,3.3262937211861745,1.5150334143463726,1.1773481220728652,1.7673269896962598,2.3827612505797235,2.7758486567965908,1.2512803423216612,1.7297533791698352
1675854938288323402,0,3.3390240173192867,1.4918461265271614,1.1810043124630918,1.7852740578035755,2.384821008635785,2.737590730286127,1.2448686409047993,1.724503460633509
1675854938288617610,0,3.338626650979967,1.484475965288231,1.178065220640877,1.783511120405616,2.3854675740014435,2.7285547453996988,1.2426889207691791,1.7316921613809404
1675854938291369199,0,3.3423309680214275,1.485543539013897,1.1860899613283233,1.7769537264764728,2.3865142446158503,2.722730092014626,1.2492612885463026,1.7260854898401834
1675854938291554927,0,3.350112014899366,1.485350040357632,1.188885102800326,1.7751894199829916,2.3837501213502836,2.71829978551502,1.2660591796197864,1.730840418027234
1675854938291733026,0,3.3483802939471645,1.5147926197674613,1.2137453158437843,1.7722600945765277,2.3852541315309095,2.720759070369796,1.2747835786115003,1.7197053367251016
1675854938291806697,0,3.336084814306984,1.5172224875635714,1.2158592935953276,1.758285198518189,2.376804519427532,2.7230890720066805,1.2715533136841228,1.7159889613051547
1675854938291871309,0,3.331661748820052,1.513669368280666,1.2100082096659095,1.7319808689751348,2.36504596062868,2.7161869294600733,1.2704662622115193,1.7145941953887758
1675854938291933536,0,3.340934969619001,1.5067176135833507,1.2031706779779037,1.7350094536546903,2.3542669890490835,2.71444187234214,1.2698676321360383,1.7122465321913003
1675854938291992902,0,3.327904311845505,1.5031978577670158,1.2069125641458467,1.73385991020193,2.3582260419337624,2.715742968428517,1.2713129809437091,1.6878187758404664
1675854938292052984,0,3.305964648663724,1.4944853096461168,1.1966630632715172,1.7264490487026363,2.3478341091194532,2.7128999631344315,1.3091083827130274,1.6744430053495734
1675854938292111396,0,3.3172115102356687,1.5032568188109603,1.2111069575765845,1.727851752407094,2.341151781906538,2.7120700540683487,1.3183255863543104,1.6805570891336443
1675854938292169570,0,3.301136267890879,1.509683488401823,1.2097541229862985,1.7241890466026364,2.3183532577665824,2.6696825406144207,1.3051412685323713,1.6698306233011482
1675854938297287940,0,3.3120811329512354,1.5049368198296986,1.201824071879606,1.7202236002493796,2.318876337107634,2.636834183896233,1.287919761459268,1.6327232079741145
1675854938299365520,0,3.312961105912555,1.5017059671804878,1.1901591037243822,1.726335524555686,2.3156038796972513,2.6383575282087963,1.2811470240611271,1.6007082988882342
1675854938303433418,0,3.2678252513123565,1.5012378880933999,1.1913791664078162,1.7034549330696964,2.317764195467747,2.6367422448082647,1.2832572716014108,1.5472613781654772
1675854938305575609,0,3.1595127275919257,1.5010239365507687,1.1831374492839886,1.7112254349908396,2.2840119504136553,2.5824830247696706,1.2588593551119418,1.540692085381801
1675854938305835723,0,3.154335772593615,1.5042814958380952,1.1849828757375143,1.7111695982178003,2.284118158913758,2.5770582697356104,1.259875215193798,1.5430686748380698
1675854938305927991,0,3.1485904196356564,1.5065350176874313,1.185290507799008,1.7108448077137,2.286066974997144,2.564773162052618,1.2594891486390056,1.5450938956800304
1675854938305991411,0,3.147450339130042,1.5076574200307882,1.185376011436123,1.705878301255377,2.2859456014818105,2.5585056148381407,1.2602881207265728,1.5439859749756581
1675854938306051015,0,3.1479517531341434,1.5116886587372482,1.1842091366953131,1.6679784872811625,2.27457853260202,2.542181377884206,1.2648879064289482,1.5423626517951585
1675854938306108474,0,3.150687952713548,1.5142882948709484,1.1859657090422933,1.6554114971423377,2.272019483663108,2.520542036815718,1.2649743559536557,1.541942538626101
1675854938306166887,0,3.151699902193305,1.5023045155728123,1.1861580908086125,1.6661721187759835,2.250400918257166,2.509906555985194,1.2548525936605532,1.5465729817462983
1675854938306235551,0,3.157232351711128,1.4930573817009425,1.1863266058750068,1.6627650353913999,2.2081465484017584,2.5176450526505807,1.238165927564583,1.5485262234145984
1675854938306393384,0,3.14809066264511,1.4854755324759732,1.1823245446997508,1.6413418421816677,2.173872469056476,2.519438556183015,1.2384821875181062,1.541956098671942
1675854938306474208,0,3.1511639294844684,1.4850035867453726,1.184446259470385,1.6394136338587977,2.138329096636742,2.522989653747084,1.2500950363310628,1.53064103232604
1675854938322829246,0,3.1508793609047467,1.4876331505716085,1.1940861544733985,1.649832432004863,2.1487329702261952,2.5231220116766147,1.2531923001598,1.5319771711261134
1675854938326497793,0,3.150314943326119,1.486422678943981,1.189619399009632,1.639692252114248,2.177067064855376,2.5251415460692934,1.2578563319566665,1.5405343564964593
1675854938327841520,0,3.1436681563326614,1.485870161101659,1.1787406940166427,1.685897869839992,2.1763853888045936,2.5120446070802545,1.25710258033644,1.5413545100741257
1675854938327985763,0,3.135752076832835,1.4897776207838462,1.1737472527316282,1.7133192775339134,2.233253538939119,2.545827257164509,1.272139984643759,1.5543101574223237
1675854938328044652,0,3.135308801543022,1.5017953173783967,1.1738095861758842,1.6501924551083318,2.2170298192732303,2.5185066944446595,1.2674392039419915,1.5522943344507405
1675854938328099012,0,3.1337396943081233,1.487448423049674,1.1723110872918052,1.6435858019434104,2.2162086698512127,2.4940868712817825,1.2445599999170145,1.552027275086303
1675854938328151702,0,3.1371328125130153,1.4775644016788567,1.1710984841122138,1.6389120942161948,2.2024044385266395,2.4742017372867195,1.2261109605964309,1.5705548272713348
1675854938328206300,0,3.1475359774319087,1.475776254925827,1.1679984892358528,1.6372664572657751,2.167046515077099,2.4741916197907403,1.2311414642480654,1.5630740736453792
1675854938328269243,0,3.139599929421845,1.4757033165349867,1.1673477461532225,1.656283123814612,2.171380661995967,2.4749751463236183,1.2342550733158781,1.5567882881438488
1675854938328366756,0,3.1398341520898736,1.4808310344543694,1.1693530009370852,1.6754192659057119,2.1758040296533365,2.4957688392396884,1.2334910259454972,1.5641209140951806
1675854938328402996,0,3.135939154244693,1.4820527485130046,1.1788499216072816,1.6653408348438399,2.1756769193500243,2.514381673135475,1.2237543780630062,1.5650183870487873
1675854938328434467,0,3.121030922861206,1.4831823083671458,1.1811967023000123,1.6586792701944664,2.1816179902182777,2.511991506836507,1.224715538293307,1.5656196822840245
1675854938328464746,0,3.1267687005382614,1.4842460232201447,1.1792341510244766,1.6574234284590061,2.1838288242607615,2.5118767796254162,1.2178713201125524,1.5620322733260992
1675854938328494071,0,3.1542429283593587,1.5629616898028367,1.1854912944409652,1.650907549044253,2.183919658390604,2.524398666903854,1.2161887633605586,1.5578357518452683
1675854938328523874,0,3.1483315714004583,1.5635927676739618,1.1895253881466492,1.6104770369054089,2.171324471474428,2.5436051139765032,1.212493460708945,1.5255743363659897
1675854938328552961,0,3.145231361001992,1.5614886810070039,1.1924155151170088,1.5928625958745217,2.1356392407226803,2.5464780933701503,1.2138225114267547,1.526985045902726
1675854938341383457,0,3.1462018055170318,1.5606168982048878,1.1865334508417522,1.5928217186298141,2.1436563558094557,2.568853145198409,1.2282001427708074,1.5270328950707246
1675854938342844009,0,3.1560158149422395,1.5657554898416042,1.191158958085609,1.5546587194188195,2.1521880641856557,2.5742926526922925,1.2291373878331529,1.5287907922222876
1675854938347879648,0,3.157226910081836,1.5587472600435814,1.1906206336259826,1.5475659464757545,2.1387655595157913,2.5843723000554477,1.2279498941125628,1.537213525334897
1675854938349559545,0,3.1588521672390812,1.557760453263744,1.1892948627559556,1.5332490199841025,2.1425748601405044,2.601420752820618,1.2445099941591191,1.5371608471341125
1675854938349683761,0,3.155720094508557,1.5656964411524157,1.196462197263971,1.551353140773864,2.1067402203627834,2.5985864508543743,1.229169471378428,1.537319738805618
1675854938349727630,0,3.161450252107065,1.5644247018262714,1.194152872011739,1.567172638661767,2.0593823651608005,2.565648520193688,1.229414378046558,1.531999596549525
1675854938349763154,0,3.1898192010733215,1.5611561217881569,1.187199079273483,1.5810911898979134,2.060792986222592,2.5312675296172222,1.2300938464496223,1.5299350500017268
1675854938349819898,0,3.180319706079436,1.5615288041211393,1.18768307364387,1.5918855299527712,2.0552560224879124,2.5219949160350366,1.2325632547599035,1.5369597106493276
1675854938349855184,0,3.177429309090447,1.5591165337304254,1.1867849775069306,1.596648880430428,2.061382751424142,2.5352829052007895,1.246634172393299,1.5528807969730558
1675854938349885940,0,3.181285431777781,1.5398468959979033,1.1808367595294826,1.604826581941236,2.047796702585603,2.5337645055077553,1.26020271123521,1.548231851081656
1675854938349915742,0,3.176321851932131,1.4717878189636018,1.1573956635011673,1.6245188928425762,2.0884046246146735,2.4588706619196166,1.2577372727076872,1.5507863659826533
1675854938349993467,0,3.1723205054940573,1.450432206424054,1.1588930835057953,1.621828804751204,2.0959963233557626,2.458309952691709,1.2567939552545258,1.556821815835562
1675854938350028514,0,3.172518856004383,1.4530901114522679,1.159237942726108,1.6184823702062845,2.0715160198556295,2.4587770603309327,1.2563908883266186,1.5583559632223591
1675854938350059747,0,3.0805521011197676,1.4513350895918073,1.152525915778852,1.6083241053499948,2.0263160458804346,2.473847411108497,1.267804492793029,1.5583861320606966
1675854938350090265,0,3.0302065119001513,1.45581511903185,1.1480323319381895,1.6037690662533577,2.0090095146777163,2.459168146914813,1.268710190999629,1.5452324349338002
1675854938350119829,0,3.029697260053966,1.4576465581675375,1.154106456092319,1.604625481751176,2.001996149400588,2.4356477686945395,1.2680372774416888,1.5820823808194782
1675854938366760969,0,3.0674226118340107,1.4558198247623468,1.1686761443391867,1.6089890222316061,2.0017881864827047,2.399410196950876,1.2739924418166395,1.5851540178005747
1675854938369088411,0,3.0345081278285333,1.4369769012455633,1.1803815541361569,1.6196919780738144,1.9924439132969667,2.38912490350926,1.2781085217487036,1.5871835795921156
1675854938371038913,0,3.0367637758040886,1.4350857422135808,1.180522092041194,1.6220073356207667,1.98870700936903,2.3892658254565267,1.2734747267515352,1.5547807074248436
1675854938371201276,0,3.0074839587010653,1.4410659759754592,1.1795873704090463,1.6000203182625294,1.941841838303082,2.3032614827180504,1.2723922386365887,1.554850954616611
1675854938371267557,0,2.9711979147065315,1.4436065803249594,1.1780731309460837,1.5855027084791855,1.9248964115653144,2.274343693757774,1.273947998901123,1.5313726303064563
1675854938371324300,0,2.9260968559291776,1.441881566979922,1.1775439301711157,1.5772047653935188,1.927160671503777,2.27343695376988,1.2767501537976687,1.5197651682438384
1675854938371385335,0,2.85910786424158,1.4452084107369603,1.162439351539401,1.5498952045081806,1.936833436317803,2.2718599580501566,1.2730819681681609,1.5178719519308106
1675854938371453762,0,2.81545060518989,1.4500734905414707,1.1614359927636897,1.50988142275502,1.937453571001399,2.2711388968749753,1.2796904101783113,1.4976112409139017
1675854938371528387,0,2.6199315321764893,1.3600149829948696,1.129019914411475,1.5074728775512407,1.933246867463824,2.2324045724483903,1.2818334837021483,1.4991168822979404
1675854938371674060,0,2.619753588072672,1.481740467010902,1.116166142272934,1.506860243205815,1.9317337007100552,2.345732376221452,1.260002222177301,1.5094854884990925
1675854938371736526,0,2.6140092859603192,1.5173085083533406,1.1181494072624507,1.5090791700447426,1.9637408056782013,2.434679964779704,1.295689886808206,1.5157368106340026
1675854938371798038,0,2.591105515048371,1.5180214343700826,1.1227222081422128,1.508852147905266,2.0010526787892298,2.4614527200778307,1.3021029641412856,1.5210719961011026
1675854938371858358,0,2.5906437304853593,1.5195272896683925,1.129366013140271,1.508588101376299,2.0010592278046033,2.4626292400310583,1.3048337077950276,1.532823843538248
1675854938371918678,0,2.6166703102849405,1.5220041848192183,1.1219988423899545,1.5084830144748345,2.0004459453383605,2.4625552083111435,1.3152489992678809,1.5354228063185538
1675854938371978759,0,2.6229070727249595,1.5277996618245135,1.1218481578537602,1.5090234501825992,2.0015464775093923,2.4748677561980257,1.3305439497526264,1.545118173462228
1675854938372047185,0,2.622681204672391,1.5303982276480708,1.1201790982180844,1.5096896454830695,2.0499800588673565,2.5798263754807524,1.3431547136926152,1.5519401889200233
1675854938387789726,0,2.6283029128455206,1.5330405886153706,1.118925341748906,1.5131125360575397,2.050278836397773,2.5813612371559964,1.330319960170498,1.5519596234222954
1675854938391793966,0,2.6281508896747368,1.5339099347387872,1.1210364315152141,1.5106585820647074,2.0534265064294424,2.58274811875111,1.3298880208038755,1.5520964537360034
1675854938394082307,0,2.625430727395099,1.534336200541429,1.1101065505728582,1.5208060905498302,2.0535916041288744,2.5826966076386784,1.3301148974572319,1.5520868097608163
1675854938394479990,0,2.625547771947451,1.5347496524668018,1.1100316395500422,1.5170211772023663,2.0544066015677904,2.5921473219246436,1.3327428169509037,1.5610964789946289
1675854938408621549,0,2.618963131327881,1.534724485559362,1.117219362641257,1.5218870066595955,2.051381927555735,2.615575311881138,1.3400735935999177,1.5811676434923796
1675854938409272432,0,2.6191175076366453,1.5344364664352999,1.1182156141238817,1.5232544414293605,2.051299547408395,2.6163090337479944,1.3371362100311148,1.5810958222550113
1675854938409507989,0,2.62420757561742,1.5377781596448918,1.1167271855353897,1.536864664163338,2.048955634487018,2.617066552153446,1.3616613659812151,1.5816025812550987
1675854938409701108,0,2.613257604948159,1.5466676837424693,1.1153095995874487,1.5392654047167538,2.0450890006306164,2.616741793576689,1.3719540196585858,1.5814222361140824
1675854938410108089,0,2.6115154231787803,1.5511500253030015,1.1102707175166098,1.5330853118255483,2.0429889752830284,2.6185860188792236,1.3721424024246371,1.581039138787832
1675854938410336494,0,2.6135741607706153,1.5445611408839304,1.1036752486411918,1.5168320557965895,2.023192833072573,2.6155475470514697,1.3809683488820754,1.5846148835390472
1675854938410506248,0,2.636021353581793,1.5433931387128121,1.1080421142084467,1.5127852775106871,1.9983191341209516,2.613475391692432,1.3807328498331863,1.5775588762532573
1675854938410678386,0,2.6411609535614637,1.5428574240986335,1.1079183872973961,1.5132393850926247,1.9914056045319568,2.612323691351741,1.3820453415672653,1.5747744464340918
1675854938410860538,0,2.6384119915707474,1.5471236179576244,1.1126077541074708,1.526522179000757,1.9798826181506077,2.619159091177099,1.4095637964316887,1.5747704493676928
1675854938411047935,0,2.6313214381661045,1.5495709510666529,1.1289008025848657,1.5318391090459285,1.9737651678204704,2.6251419569748644,1.4214147544520677,1.5741676528357198
1675854938411478042,0,2.6305605566762313,1.546140288935877,1.123447796174465,1.5316423417381828,1.9721888995006207,2.5756209391937817,1.4227761362778826,1.5523658062373311
1675854938417275905,0,2.631292682216069,1.5618554308814407,1.1233414675447015,1.532664451192842,1.9615281945629417,2.5902492262300765,1.4201481696197722,1.5552808553387016
1675854938417546987,0,2.6246796010574687,1.550748475065451,1.1216570664885233,1.507375735246606,1.9591803350286259,2.5954694294092837,1.4200539327731039,1.5577851490476684
1675854938417743206,0,2.6147862949393064,1.5499859364886992,1.1215712832017781,1.5041951558974997,1.9633787886363967,2.6012362897758807,1.4222122754442084,1.558168273413646
1675854938418629169,0,2.6164588025443543,1.5499968310250458,1.1234825425427382,1.4991407787755517,1.962174895370237,2.6020473241316644,1.421959588219351,1.5584117575730057
1675854938419922351,0,2.6185519373790247,1.5506092828493394,1.1212539381172024,1.502730064542559,1.9587538114572023,2.6027869537945403,1.4337532141738092,1.5558619303067749
1675854938420578956,0,2.6250524482114295,1.5527052365324192,1.1272414500809305,1.5115701162966335,1.9555558156762476,2.5933682857617226,1.4280102207404173,1.544919414845805
1675854938423312664,0,2.6370958027414337,1.5555586823788725,1.1282884595015268,1.5185529074167508,1.936868572536426,2.5914430022812565,1.422324408805676,1.54410116658383
1675854938423506259,0,2.639096284225943,1.5552621819551784,1.127831863439547,1.533127139146255,1.9349321201107432,2.594317437387715,1.4255471801870223,1.5443162737308425
1675854938423727273,0,2.6520329969496035,1.555689768030935,1.1522527541879564,1.5477265559160216,1.935960149100531,2.5964708338976004,1.4253266002510148,1.5443303985789445
1675854938423839569,0,2.6552607753976627,1.5459358400791918,1.1476500518101398,1.5488520892253959,1.9358430837120608,2.5964425486978655,1.418107563021123,1.5442606799508236
1675854938423934936,0,2.661550597254072,1.5366984164710578,1.1490283618076245,1.54784501984475,1.9363895512376583,2.5990731802357088,1.4160138383098124,1.5443011319985822
1675854938424024343,0,2.65912824116647,1.5313046768055674,1.1413888023102474,1.5473275075542885,1.9340289921065335,2.5974798933159224,1.4104494952922269,1.544323382597663
1675854938424105882,0,2.6679505579808422,1.5269082745593148,1.1390655420364317,1.5508398624530326,1.9197735255919628,2.5959119976063176,1.4013184616933,1.5438687183473316
1675854938424201965,0,2.666608335784347,1.5218162594288758,1.1387590492588142,1.5480789207375696,1.9196677837201988,2.577516457622699,1.3966547785524324,1.568169577140157
1675854938424275875,0,2.6734169447724683,1.5069128360279023,1.1398948456941973,1.541857310390051,1.8932043536609133,2.5851860621245715,1.3950903403663601,1.584650195971332
1675854938434245586,0,2.7267794694585943,1.4961380222818885,1.1355269929199732,1.5546920839314873,1.884339172374402,2.589413789156251,1.3936941404737726,1.6024130910936085
1675854938434376716,0,2.733881091432975,1.4945692095773322,1.1355863363117025,1.5579163559622906,1.896638748244332,2.5883288924267056,1.4232539002650337,1.5901258541554049
1675854938434463739,0,2.720948445225574,1.503697778174387,1.1319328042261099,1.5571998109060545,1.9107995867960594,2.586740114881563,1.4365812626387588,1.5762028968469697
1675854938434835910,0,2.7001324109238825,1.5254636082801032,1.13002715226318,1.5563916187686029,1.922357794321733,2.6214699646717774,1.441106388788114,1.575755692917554
1675854938435024976,0,2.674651529908189,1.540879045339235,1.1306085844943072,1.55076138979886,1.9371327620406051,2.6340041800165332,1.4392638477311588,1.5751786974725956
1675854938438661098,0,2.671973303562406,1.5404171601486358,1.1213795399402724,1.6027187018374702,2.00720440734643,2.652478988705438,1.4645157648404747,1.581501426751936
1675854938438850402,0,2.669557072414525,1.5408624365057155,1.141353308965686,1.5916179893988847,1.9510990851137922,2.691587214261655,1.4562699606677598,1.582852163854434
1675854938438940763,0,2.6612636655974744,1.548852327184777,1.1488890659589388,1.586677399545928,1.9294088671069536,2.6782025017905937,1.4536214157662601,1.5816959580415024
1675854938439018011,0,2.6611089098299914,1.5491908261639693,1.1409979192038178,1.5692057757154596,1.9316806147300396,2.623226928044352,1.4531977339657978,1.5783091059398808
1675854938439092636,0,2.66296505652472,1.5382134231154472,1.1406958233478297,1.566283136517754,1.933430269584031,2.6202386819099983,1.4481180786625554,1.5782119774782957
1675854938439160823,0,2.6660137775533856,1.5296103724152752,1.1323539019259716,1.5600425822579502,1.9383703964365226,2.6200569090110397,1.456350547173418,1.5781218533158958
1675854938439317464,0,2.6724324629760656,1.5181233427086023,1.1369633867363083,1.575674253191204,1.9587161199881202,2.64269944535909,1.4538072144003116,1.5758610668847157
1675854938439396381,0,2.68873648480838,1.5218541790247562,1.1295943309855638,1.5982316204037608,1.9859547570498741,2.6497130696732545,1.4593146370116603,1.5691861152457756
1675854938439470291,0,2.6970669698792173,1.5221021789698452,1.1281919126676943,1.5983023751750884,1.9940532072141484,2.662732587539372,1.4595803458405399,1.5646696195401228
1675854938439541816,0,2.6927476881415893,1.5206259185216986,1.130541405691013,1.6040613269018562,1.993538587943631,2.635184691283476,1.458637853771047,1.5653576819759225
1675854938463136434,0,2.6932258185341174,1.5149511933276447,1.122538413892971,1.5940964247334524,1.9917747952188418,2.569464886219412,1.4595033137403977,1.585184520129673
1675854938468095064,0,2.6968865334067784,1.5131265804191163,1.1148634985996084,1.6094572892194663,1.9912054755034845,2.547105139442628,1.448038852479405,1.5872051292130855
1675854938469738006,0,2.7060444167905464,1.5164151418855991,1.1147828389373216,1.6416540013058123,1.9991294756931417,2.586827615654256,1.4532105096546948,1.552440988154081
1675854938472173213,0,2.661253792554733,1.5223228647540852,1.1129628097628315,1.6458181999972292,2.0028926446918662,2.6139744760814763,1.4541756127271703,1.4844850190431718
1675854938472745656,0,2.4730374879938126,1.5273745963814562,1.1155510062174425,1.630781455506806,1.9696660447609593,2.5485952889379506,1.4352461438621544,1.4781723559945181
1675854938472963333,0,2.327695112681203,1.5347240744387776,1.1257392504611494,1.6096507596741518,1.9718210574949515,2.557863761740697,1.441500411482588,1.478587606725517
1675854938473228454,0,2.3136824552058455,1.5411482126465095,1.1289942042875947,1.5894016200796917,1.9734819300000874,2.5622857460258173,1.442353689480501,1.4851964392737782
1675854938473394870,0,2.3328679417018234,1.5375361292347018,1.1332955982676869,1.5938451710574693,1.9728399231367477,2.5496137494821522,1.442435799178478,1.4891236705972628
1675854938473619937,0,2.377464237956198,1.5257039202391816,1.1246348352200077,1.6053070525149733,1.9803848353973577,2.56808987346784,1.4353485989246348,1.4877180002324046
1675854938473716497,0,2.393221505286486,1.518481636215629,1.12355803009377,1.6135291136286805,1.9841974194325624,2.5793788436857135,1.4188787194284216,1.4836906772713216
1675854938473807096,0,2.400010053162322,1.4911165966706126,1.0932545394611326,1.6198910023402844,1.9999467353586025,2.602307186627385,1.4112512465471152,1.483657508268863
1675854938473894834,0,2.4191220035893894,1.4879370630440218,1.0872792123433572,1.6141902462073847,2.0134735882418133,2.61369265016945,1.4142658704993751,1.481734574356564
1675854938473979473,0,2.4234898853732005,1.4872740431745968,1.089354769918409,1.6128318132639186,2.0137328210251155,2.6153531449138603,1.4129965995257587,1.4807367075139295
1675854938474061727,0,2.410447618176009,1.4893565939136162,1.0837548350503505,1.6107913495166086,2.0194696457312813,2.6545642383333843,1.4131080565714547,1.483441469957561
1675854938474143266,0,2.410994523853831,1.492598517563712,1.0734352779100682,1.6206222086238722,2.0205220290543235,2.7205856038661107,1.4195602311479425,1.4883004766835117
1675854938474225044,0,2.408614852743452,1.4993894482726782,1.078249052977175,1.6247180853932628,2.0333038704244166,2.773921676278257,1.3912363056702308,1.4753984006119678
1675854938500561714,0,2.3932673821453325,1.4959670229615438,1.0715527084098173,1.630134993225789,2.03121235230328,2.7945295218917576,1.3875384642153112,1.4668228141796913
1675854938506874799,0,2.3947382031709035,1.4917038238195073,1.077156456008224,1.6312115764267865,2.028962553044818,2.805260209592761,1.38857081987991,1.4664925193628335
1675854938513726949,0,2.380263114284645,1.4922112093919755,1.0683680086464846,1.6332816572421411,2.032227409500907,2.806327813405478,1.3885946304519692,1.4582167199925395
1675854938526457071,0,2.3534152780638435,1.4977069314376072,1.062757131983521,1.62363916744343,2.0336845148281206,2.8043481277111804,1.3891034977173558,1.4198806025860218
1675854938526799678,0,2.275472616432208,1.5038622533757409,1.0635736272796412,1.610234569944005,2.038247693085289,2.8091285164030757,1.3876176497804185,1.4180729933970784
1675854938527170658,0,2.296616421951652,1.5027734759706681,1.0692466873912279,1.6097663257499273,2.0396102115223083,2.809438803894951,1.3753352977434028,1.423314609345634
1675854938527388334,0,2.3059417869150765,1.500878296476083,1.068934321685677,1.6021167474467166,2.0468575254999473,2.8165627038044416,1.3719354632679641,1.4116425593127162
1675854938527545452,0,2.285952585021857,1.5043617196684644,1.0691073559324007,1.5807940085849261,2.054926686203907,2.8283210913220627,1.3710132797071104,1.410559689874536
1675854938527858018,0,2.2751318737035207,1.5017943164490999,1.0617676510408136,1.5853298606932842,2.0550651079588365,2.8332051612632987,1.3719349090920236,1.4040005881667326
1675854938539224386,0,2.2749052315897424,1.4924868451316575,1.0659405617210793,1.5875749388973692,2.053628679407351,2.8370588101448013,1.372851075992555,1.398480761213126
1675854938539494514,0,2.273153681633468,1.4933739268010298,1.0664980884598776,1.5911511126646518,2.0531194512026527,2.8365946005659866,1.381771623751551,1.3987820257752763
1675854938539646625,0,2.2795524030675502,1.4952101360336694,1.0733194237615162,1.5950394205506109,2.0561184596820157,2.844451723681383,1.386190882642632,1.4005243907398175
1675854938539903163,0,2.2879645615657296,1.4938186256872499,1.0791121075239252,1.595204794172603,2.0678038679228496,2.857293665727421,1.3875549041473445,1.40284165793557
1675854938539978981,0,2.2992745941513655,1.4953262434297507,1.0786944386084745,1.5915760467475317,2.0678706757923835,2.8458010179375224,1.385585610803336,1.3976158641704588
1675854938540049314,0,2.3190988620107817,1.4766629579229682,1.0808973406876583,1.6026874599402883,2.0278838223539633,2.8671147672536694,1.358394467788062,1.3468770557010419
1675854938540118217,0,2.32629772618709,1.4808980707282884,1.0799633770623287,1.6041423501330017,2.027509108646332,2.8700742534746975,1.3631960398353868,1.3517921838159135
1675854938540186166,0,2.321365534822064,1.4965357953969125,1.0646762221215982,1.6037052922166974,1.9307870252017545,2.8773248427684424,1.360026143998161,1.3310654751305935
1675854938540254354,0,2.2996565838605036,1.504202837468485,1.0646358560847762,1.613748529983302,1.9008732830235906,2.9260392322570095,1.358815759167204,1.3333866869123514
1675854938540322542,0,2.2975188322742164,1.5091645901700186,1.069018655285136,1.6211592700174975,1.909133373770104,2.987517323603113,1.382142072815319,1.3345325588198595
1675854938540390491,0,2.2963715328601917,1.535892194233461,1.0928677616334581,1.6041164813084607,1.9040420977884511,2.9847140692414977,1.3843037809617522,1.323112494194348
1675854938540458202,0,2.2985664452446652,1.5373240347873587,1.0830049304983418,1.6095936737993448,1.912062745693962,2.9681860358589183,1.3870772287551525,1.3262804064682228
1675854938540544033,0,2.3181622752767064,1.53449689385613,1.0790584801300556,1.621647775011982,1.9494797246271964,2.9805224050310817,1.4272977228957948,1.3258881053393636
1675854938540618658,0,2.320595942501344,1.5365133175859658,1.0813888538958438,1.631370931767875,1.9621394154415668,2.991831300413381,1.463587498723411,1.3265555708238272
1675854938540693044,0,2.2951612753323287,1.4629344978827201,1.0769436705231294,1.6356256506146796,2.0179019906803037,3.0534319283318334,1.518610244046616,1.3274702812669321
1675854938543767690,0,2.32276249392082,1.4731488472888075,1.0660407640026317,1.6385664720799997,1.998496763566953,3.0380466607196546,1.5267420326870351,1.3276328478891295
1675854938544723272,0,2.3307357161299986,1.501594051848293,1.0624432360470903,1.637394300577636,2.0217870274050234,3.106957503951791,1.561353146304632,1.3249003558068115
1675854938548997879,0,2.3027769097792925,1.527176995299067,1.0847320050323812,1.62973594575815,2.021437502470358,3.144783241963285,1.56958671465605,1.3054091883917884
1675854938549115180,0,2.302752503208734,1.5278262825406863,1.0918314978612413,1.6228827167619728,2.021938155746806,3.1365010591054796,1.5782827400101793,1.3050091531143937
1675854938549270868,0,2.260329401879308,1.5305580401517613,1.097321245238823,1.6075098937690844,2.013671005488869,3.1353642249515588,1.5817160179157874,1.308259173331139
1675854938549326896,0,2.2625767814956785,1.5329687639426093,1.097453727814655,1.5991287429600591,2.0280863889949976,3.119352143650629,1.5800117751909917,1.2948658508892932
1675854938549379587,0,2.267914581489177,1.5341528333728833,1.0968679928582565,1.5948374794080715,2.028743282455829,3.1352247234994275,1.564787289867206,1.2948505272273778
1675854938549432039,0,2.2817124032659475,1.5282262785294072,1.0966159936863842,1.5853443773285354,2.0290072284238128,3.1751927014691734,1.549919845911208,1.3096231579467748
1675854938549501895,0,2.311712180192014,1.5228109192712962,1.096071768406312,1.585352765715391,1.9863610620728644,3.182801888433391,1.5556052409897465,1.306698324098476
1675854938549591064,0,2.3068103616300903,1.5230156804385029,1.094415574181971,1.6161875577086817,1.9765797853632883,3.2104614145888215,1.5600684603667136,1.332943639838262
1675854938549656391,0,2.3021928859597325,1.5215001548677594,1.09453351869964,1.6231205935657342,1.9728235095681725,3.2397093102364307,1.5705004179029527,1.3366312337581572
1675854938549721240,0,2.3019061829315928,1.534624727056201,1.0955170511597223,1.6277263708096152,1.9727002010795807,3.2333928983697917,1.5648600754657052,1.333609248626893
1675854938570498466,0,2.301507834826319,1.5327506681702463,1.094475900655903,1.6226429111301015,1.9769000426145351,3.2226530724905174,1.5651083337995173,1.3342033189621731
1675854938571996927,0,2.3025598954123048,1.5334266723536767,1.0897630308240056,1.6220904643785168,1.977498288741577,3.2222854580083857,1.5650016780514526,1.2831587267804538
1675854938577368497,0,2.2404709724885614,1.5306608211658859,1.074138071161891,1.621994530231138,1.9775093118996263,3.226108988902585,1.562315603100203,1.2642051882804441
1675854938580975294,0,2.176648671440118,1.536974328797754,1.0559899609100154,1.608514098542351,1.982752314717905,3.2360247044152155,1.5611555326390132,1.27650832799169
1675854938586123228,0,2.1629089451146495,1.5316026274169534,1.055730019075011,1.6151375439405067,1.9842885739228435,3.2465728373340803,1.561084958942688,1.2692621940884292
1675854938586397886,0,2.1569146967050976,1.5232527005703618,1.0566857948408477,1.6171086300046893,1.9790438094447194,3.2496818602771693,1.5599918498421117,1.2713399701681123
1675854938586524486,0,2.157790043691285,1.5264215470243692,1.0564394400563486,1.621908105380134,1.97720664294248,3.2569552502112553,1.5589374953757054,1.2592276775578664
1675854938586831331,0,2.1520027374387345,1.5247729262182215,1.0561348349763908,1.6270709251637983,1.963642479380701,3.258969608282791,1.5605163483833986,1.245644571481199
1675854938586970090,0,2.147065488006635,1.522538655854568,1.060068815759116,1.6275585741841436,1.9614293774588558,3.260769037762792,1.5559354733617567,1.2440127682000348
1675854938587083578,0,2.178049600691924,1.5172623971115524,1.064564923805896,1.621634496912898,1.961289638154835,3.253304780170446,1.5498833038943882,1.2413935791655932
1675854938587192773,0,2.1753952110466437,1.3521431939306898,1.0627586422768467,1.6215970118416672,1.961278601092392,3.1698075015151477,1.551900347087175,1.2072407243579455
1675854938587300539,0,2.1878109830480854,1.304561877081563,1.0562537273169765,1.623829431417666,1.9289282668990155,3.109123495648308,1.5219264092680638,1.1957621516803074
1675854938587408065,0,2.1890645269250757,1.3103050214713123,1.0516941228297005,1.6265296158492202,1.8924969274707426,3.09467042259882,1.5205028759449435,1.1880709208951847
1675854938587515115,0,2.18075738849398,1.313600880064463,1.0443564036821458,1.6257234112677874,1.8961153797270873,3.093714276278678,1.5193806322916528,1.176484508792744
1675854938587621688,0,2.1493960537703485,1.3205621118198019,1.0479173034752276,1.6256123730902055,1.895985046193295,3.092711474248484,1.514555341219073,1.17505280345209
1675854938589553594,0,2.144168606541619,1.3176162572387982,1.049838034580376,1.624930470010607,1.895523539052097,3.090775578160529,1.504524741837848,1.1683178119424944
1675854938596022367,0,2.160282024237125,1.3101610421108307,1.056004663172695,1.6334604690013665,1.868577664129181,3.0008247384443885,1.488436597776135,1.1581308735405376
1675854938596186637,0,2.1602317838953478,1.3081043217137511,1.060633426016648,1.634186799116656,1.869295426586616,3.0088846416234794,1.4883401952476707,1.1333040934355625
1675854938596350669,0,2.162317003734111,1.3281348416331753,1.0571639958723795,1.663963493042311,1.926104533850365,3.0176012374954553,1.499075487294955,1.141497351103687
1675854938596429347,0,2.1735245404157904,1.3281382778599018,1.0588546071088687,1.6625050873415956,1.969295755470809,3.021045087456589,1.5020814667117797,1.1556940840391565
1675854938596500158,0,2.173502772158152,1.321136007249019,1.0646351561940974,1.6785675460361231,1.972342555506031,3.0223798980665078,1.4743943888904412,1.1549633566170567
1675854938596593379,0,2.180617337445095,1.31713299287101,1.0599957334128145,1.7176844565811338,2.052890741052574,3.0267614735357466,1.456189624848592,1.1731114266876983
1675854938596678495,0,2.1841861442660235,1.3868184230374294,1.0547708100758326,1.7191032017359544,2.202528674638466,3.091667289525669,1.475103855549678,1.172783119992777
1675854938596762418,0,2.2243522841570726,1.3870251396902347,1.052839858645752,1.7320398722280308,2.2228060936123195,3.1352335618688945,1.4672140197015648,1.1822124236326732
1675854938596854686,0,2.212197033402233,1.4089058050304013,1.0492079897895334,1.717257996750638,2.2390751792500696,3.1374155624514484,1.467054830540414,1.1827472392220448
1675854938596940517,0,2.210538363631496,1.4112056534537578,1.0497539389986923,1.7223709352891907,2.240861407738423,3.1681867783602007,1.4641515242071017,1.2322024465778776
1675854938611003160,0,2.2035290532135865,1.4122328804607154,1.043737570216968,1.7163513188808335,2.235916015984317,3.2398348788375024,1.4395635236869302,1.2555530661299017
1675854938616109371,0,2.2141103641672637,1.426174686525986,1.0315287298078635,1.7245117327266144,2.2575426769565534,3.3340222786279647,1.4219243996587474,1.2719709854219166
1675854938616255044,0,2.203808731392007,1.4280223437168769,1.0388537853001398,1.7308154974337397,2.2579036574422755,3.342274075653539,1.441552513581924,1.276687812373361
1675854938616334438,0,2.196344410288692,1.4395203895116029,1.0550207581841786,1.7388132899047781,2.253823830002385,3.345957114122395,1.4558763423713497,1.280995840884487
1675854938616409301,0,2.1805183028414192,1.445327868798202,1.0622815796193437,1.7333252165029032,2.261652473420046,3.3474978478837674,1.4567000433060253,1.2808712249186809
1675854938616482496,0,2.178700814237619,1.4438056436926712,1.0612335924817247,1.721551300883849,2.2982750263454066,3.4464287710220796,1.4786878036186424,1.2861157511459724
1675854938616554975,0,2.2542315246375497,1.4498430789525703,1.034557774813178,1.708457264512622,2.3038868637030743,3.470304344858987,1.4978588191422515,1.2857651213766603
1675854938616626739,0,2.271844171654826,1.4579054249848695,1.0292437225566116,1.7260114329637872,2.309570096544467,3.4906038130873114,1.5006206273340965,1.2940803852311291
1675854938616696834,0,2.2642553642797596,1.4579087715526236,1.0457827592337061,1.7256930249319273,2.336618202759236,3.655390170212322,1.514855810764003,1.3292315364628704
1675854938616828441,0,2.2770789791341386,1.4859001572300339,1.0605924255933632,1.7261707650061917,2.383718389301787,3.682487224258709,1.5111744078148202,1.3395412510616218
1675854938616902351,0,2.2832538655387267,1.4880117412586424,1.0583936149126603,1.7240915648381763,2.399440775478588,3.77543491538691,1.5079943451784144,1.3496786016862083
1675854938633988142,0,2.3115381372927906,1.4921424026470103,1.0578172593128041,1.7255694360123928,2.398692112279025,3.777016286430254,1.508092813856376,1.3202126764479722
1675854938634635925,0,2.303984461956963,1.4938246481351187,1.056383822402424,1.7260551859558046,2.402984476991077,3.787326178688496,1.5242914244229568,1.3052508255706434
1675854938635369777,0,2.2401205830214472,1.5030720908532598,1.05772084918616,1.717356185931434,2.4005131265099986,3.7876203874656285,1.5346166252223545,1.27883040587271
1675854938635646581,0,2.2162348738497775,1.5110202051236716,1.0594907542785303,1.720210530818522,2.391077255578444,3.7930225593290112,1.5057613946281718,1.2799132947892264
1675854938635821580,0,2.2158896888654183,1.506230643445154,1.0592178853220793,1.721501113857016,2.3797837739053036,3.790315026919776,1.4939072968184022,1.2835879481939647
1675854938636274576,0,2.2185526376964244,1.486105389139518,1.05735065500116,1.725284122428241,2.3705164880246237,3.7580955104345186,1.4944288042998846,1.28406113848334
1675854938639678478,0,2.2204530874856654,1.470938692275229,1.059894546976573,1.7409488116385436,2.364201026540475,3.761914559252341,1.4988388062545484,1.2841547807160474
1675854938639805555,0,2.222355562871367,1.481510940144495,1.0661094724226752,1.692133402700453,2.3323253477027643,3.7811565599688617,1.4927165728818612,1.2831213723875992
1675854938639993429,0,2.220466110389969,1.4883445907658783,1.07053934171039,1.6919367642961312,2.3028529371508113,3.775732886076198,1.4839400130833893,1.2767655577282395
1675854938640063762,0,2.2282353870398492,1.4947569929411448,1.051743746059634,1.7083811436135279,2.3628237505645457,3.748955978925401,1.4862020411148575,1.2779984226307632
1675854938640129327,0,2.250144850752356,1.4864270283921186,1.0434598358878322,1.7425213207567838,2.3660727523754774,3.748549435400305,1.4904672298205504,1.2847534447876305
1675854938640193700,0,2.249481400414478,1.4840660375783485,1.0484575813826158,1.751889587918139,2.451931730532054,3.7553755586695834,1.5065752030869515,1.2856099193006432
1675854938640257358,0,2.25616445366766,1.4840660190991277,1.0488464612610107,1.755553431911494,2.511183518236365,3.758661552989293,1.5220460221544143,1.3121459619351408
1675854938640320539,0,2.2602389053325465,1.4877222405116879,1.0439315264783786,1.7562316394193613,2.5035690874742857,3.7803377906136357,1.5072378256080166,1.3333924243486202
1675854938640383243,0,2.2529817751625147,1.486654076784795,1.0395004048718917,1.743128948306151,2.4878822071782407,3.7650126791301184,1.5085150648603054,1.3328314702054458
1675854938640445470,0,2.228890602704162,1.4857502551438377,1.040418885453709,1.722659126972457,2.462742310686211,3.7370327598836908,1.4987271541563427,1.3329953291438628
1675854938659676074,0,2.217780623544136,1.4856150556894916,1.0403332515605472,1.7224267725178737,2.4602592971498263,3.7279113312548495,1.500378596049751,1.3476865310359352
1675854938667572021,0,2.2416111522324997,1.5019793929706236,1.053773021839032,1.7284684207157581,2.46419769360834,3.7257888708902325,1.5225658610912511,1.3656548384190113
1675854938668395280,0,2.2547931113590565,1.5224514441067318,1.0588575738148809,1.741947773448208,2.4670740379036804,3.72526406794657,1.5237607318322586,1.3463325936627175
1675854938668720483,0,2.257896053362964,1.5254290112741897,1.067627999490162,1.7170990945063014,2.468240356860122,3.7189956381934124,1.5215596189684126,1.3457752712857551
1675854938669024229,0,2.263296903588777,1.5220540484495404,1.0734709514125915,1.6963007072587106,2.4613536450656723,3.6782813488710517,1.5181969604033456,1.3369713104701273
1675854938669485569,0,2.2679319306688743,1.5161589593282092,1.0779445978013091,1.6945329996781076,2.4534374067670135,3.6595352478045062,1.5165526972782286,1.3364128970705713
1675854938669637203,0,2.276631030505071,1.5073680797171354,1.0646040993287944,1.6969831313823662,2.451849393206755,3.6492226127024545,1.5119506992617802,1.3337794751686105
1675854938671406269,0,2.2786111540249046,1.4942477581226419,1.0557687452855764,1.6977034222337017,2.4520444955199703,3.6418552505954884,1.516952867312331,1.3334351258660544
1675854938674027442,0,2.2812708371155446,1.4894303651104088,1.040949737243618,1.6987244541575341,2.4487785531623034,3.6379835878026086,1.530045255826811,1.3352275478905875
1675854938674579381,0,2.2707073240539937,1.4908417913496606,1.0359431861970048,1.6976625141478656,2.459887118492622,3.6559401836512375,1.5371310443437123,1.3249785258670028
1675854938674782276,0,2.218425857696792,1.499341796466932,1.0379672370444886,1.6869141634313067,2.46755557670632,3.678394890326086,1.5664921649025787,1.3305929779193364
1675854938675829648,0,2.187825279889772,1.5270415245561582,1.0390132434680697,1.6800311468458542,2.4639801946022746,3.676085151362833,1.592552792407922,1.3280446017176155
1675854938676045894,0,2.180353415041035,1.528395104509841,1.046778658964968,1.6731363184009977,2.449410975812614,3.6569464045888376,1.5926308717628814,1.3278606405361506
1675854938676156520,0,2.162466103476825,1.5279481481110597,1.0503213763239105,1.6719175656263274,2.4384966857835573,3.6474630539003283,1.5863586284753566,1.3276720504925692
1675854938676333427,0,2.167498243601463,1.5293538532666104,1.0626649377607442,1.6719020814401546,2.43857014904736,3.6458370035303855,1.5884317688274774,1.3278725964843214
1675854938676441669,0,2.1680748203373432,1.5314995648298373,1.0643741637865443,1.6707295129810078,2.4340173835109824,3.618104844746174,1.5888370635377953,1.3292587773290232
1675854938679417848,0,2.169797191596588,1.5343721162260688,1.065421009636505,1.6640547428311572,2.433481892660908,3.567712372196839,1.5874392161500772,1.3243619817332686
1675854938680134773,0,2.1695636245320626,1.5358424944420441,1.0615065893828233,1.6611881862946154,2.43889896283055,3.5263943713706944,1.5810632400693283,1.3264705765504172
1675854938681596279,0,2.1737109451222993,1.5339267887435029,1.052506871510336,1.654317251781127,2.4418056398251817,3.5099912385331584,1.5932136355486364,1.340916013592518
1675854938684944152,0,2.1918110701552953,1.5324210992611993,1.0440717069143728,1.6562965775651965,2.442520860650665,3.501755336216426,1.5967891581730276,1.344013885844106
1675854938685872554,0,2.2038949738111926,1.528649832362084,1.0439965204338018,1.667608697812163,2.437556893407837,3.5077423808776915,1.5968955371021696,1.3557181561679192
1675854938690195798,0,2.221076221158523,1.5255617797747656,1.044695411826898,1.6667810604362105,2.436591919726368,3.5090290117763354,1.596677207038383,1.377746393324303
1675854938690358877,0,2.2554760237529186,1.5229873089614692,1.0453369961049475,1.674245410392126,2.4338023941089,3.5098826674019428,1.6069096682969572,1.375962352617426
1675854938690595388,0,2.250496221102744,1.5258978309560334,1.0453548023756043,1.6779060368721312,2.4305396877260343,3.504604743162358,1.609354011071951,1.3750653545999536
1675854938690683841,0,2.2298891125938245,1.532397870333755,1.0414985919089768,1.675141185786131,2.432094886570613,3.504852088561192,1.6096961363899374,1.369265656685168
1675854938690767288,0,2.225172145264466,1.534823375075618,1.0429733022319045,1.6748858606074508,2.4260358710981773,3.5031731696407475,1.6083674995250195,1.3748827048470504
1675854938690849542,0,2.2272650646043104,1.5388494770255894,1.0536508548458448,1.675085337379735,2.4191743945421105,3.4917474939205597,1.6080030849325841,1.3842793178606845
1675854938690931797,0,2.228268518925805,1.5404703803519548,1.061775902607438,1.6707815013905516,2.42008075094289,3.4876470005712283,1.61322773656238,1.3834621109661458
1675854938691013574,0,2.232186939645688,1.544682700783468,1.0635580862150393,1.6700253254891344,2.4204964393779074,3.484188436957748,1.6169561452007064,1.387929501033109
1675854938691095829,0,2.238689520571815,1.542965606874617,1.0634384461711701,1.6895360549801202,2.42047629924666,3.4862733049246564,1.610613926227088,1.3875213656441023
1675854938691177129,0,2.2358391214633766,1.5397088709584854,1.0569040154978029,1.6927025335532122,2.421361748563452,3.4849615784026495,1.607605847595473,1.3870455899944527
1675854938691258430,0,2.223301778340815,1.5354550513104939,1.0489976018415612,1.6924836275873703,2.413078792347237,3.477105382358106,1.6131356857295307,1.3934408344777702
1675854938704704046,0,2.2081198678618246,1.5334107029412671,1.0488767333183462,1.6809602349150854,2.4139186712701135,3.482177310078837,1.6142168385049882,1.3934703142146596
1675854938712086200,0,2.20404988868831,1.5437167203182884,1.0519482583318058,1.660157208601422,2.4139321010789634,3.43881275759635,1.6131576624695794,1.3860973908204868
1675854938712970733,0,2.20420832840397,1.543975882227485,1.0435820887294323,1.6483767844159296,2.4077002497291176,3.4238970428385826,1.6089936380050136,1.3865791511988348
1675854938713280200,0,2.1732863308040145,1.5459176194405375,1.0435733312720086,1.6585596071387454,2.403312592892353,3.4219314869202946,1.6189429428541058,1.3855056992148118
1675854938713536977,0,2.170179450910693,1.5593633427028064,1.0516203697917612,1.639362796372496,2.338718118812603,3.4235522094868784,1.63624223636276,1.380855339919002
1675854938714506864,0,2.155348922668148,1.579651259010501,1.0477363291937234,1.627236930889663,2.3379897708216246,3.423486572978766,1.638452798095323,1.379474514138164
1675854938714962720,0,2.164619747236601,1.5817279156446171,1.052339096790212,1.6077537345134918,2.3297719078945405,3.4195973603255596,1.6388471893814374,1.3770499587718317
1675854938716290235,0,2.168000568123022,1.5840913015833782,1.0590437972201743,1.5946029779403645,2.3179597012787956,3.4260232401245365,1.6425401083010815,1.378832607146623
1675854938718323469,0,2.1729601246707837,1.5972962906165766,1.0659835873025976,1.5861341576531207,2.310877674462646,3.4387822188564194,1.6432545555550826,1.3793229086117862
1675854938719715118,0,2.167072723751891,1.607791053554105,1.0659352079227222,1.590303738509938,2.310980025503322,3.4479410263426344,1.6398704157091233,1.381903240215144
1675854938725285053,0,2.167377382720139,1.594957317245282,1.066178243743311,1.5980457194542146,2.3136483414461084,3.4562187016554815,1.6389244447180447,1.39052201296618
1675854938725641250,0,2.168477140475336,1.5864498497845743,1.0672558436690793,1.5885336171269713,2.311240883972623,3.4151895594113184,1.6358270223356155,1.388310943388632
1675854938726114511,0,2.1743027310791785,1.5831975809154177,1.0652753746308543,1.5598973440536832,2.3256811613786166,3.3879511492047487,1.6341011885082737,1.3880156247378537
1675854938731984615,0,2.1946537692170893,1.5576377859018076,1.0417575737937497,1.5570443793623152,2.3256821084974733,3.3841340795880384,1.6323157544716183,1.3897461628670564
1675854938732106447,0,2.19657403767901,1.554727787681986,1.0423123616142032,1.5510058251320578,2.3216995306672974,3.385372464496539,1.6299141421655456,1.3857159204241254
1675854938737739086,0,2.124697728634949,1.492188170610775,1.0269504368821503,1.5219844973154193,2.1651758624378363,3.1685816121468138,1.461833663577313,1.3877544454316184
1675854938737862586,0,2.130053300331759,1.499502299542932,1.0353575495855414,1.5235223290049102,2.163816791658499,3.1666022834160885,1.4648167236980063,1.387793349377673
1675854938737904548,0,2.1324816703736467,1.4999284302161808,1.0392743796138115,1.5229990444257901,2.162474188034799,3.1670089945229534,1.465373288161893,1.3875909652778284
1675854938737939596,0,2.1277102676523363,1.501012671545133,1.0308875971725135,1.5183145929468016,2.1645876866784057,3.1788621073002368,1.455823115107097,1.3926504297861877
1675854938737972736,0,2.1275317561330582,1.4979409234536416,1.0250600276646893,1.526610738376145,2.1639302548141734,3.186090376938921,1.4534427601041116,1.3921837442273641
1675854938738003969,0,2.117988566917393,1.5030278400973114,1.0246313906232287,1.5240785507784333,2.1506380661973936,3.1813043887467547,1.4584353188932466,1.3938858333756192
1675854938738034725,0,2.111480125088387,1.5102582280966046,1.0242265599070937,1.5226331386862118,2.141136306143656,3.1533366059486596,1.461117423127139,1.3749027576088921
1675854938738104343,0,2.0938796819100576,1.521961049377386,1.0252186094347737,1.5227203559666374,2.1427960575456133,3.1086269816235412,1.4615299582412642,1.367953485677381
1675854938738139629,0,2.059738289145724,1.5193828379189127,1.0257483232541997,1.5013303786931498,2.144320578250412,3.101524700816926,1.4695039761797248,1.3691550637822547
1675854938738171100,0,2.0445765315528965,1.5181877859036252,1.0267129178145473,1.4664979112857421,2.1467625538332396,3.0750691871137725,1.46884224015634,1.3331523199858841
1675854938791235446,0,2.0472580164194074,1.5182798769413592,1.0281516975318052,1.4607356559484823,2.1493371479719787,3.0466081695813085,1.4578868872354231,1.3274351508859792
1675854938797793388,0,2.049229172042861,1.5071486867380446,1.0271856053193589,1.4555931926268528,2.1493465351605265,3.038782532781796,1.4557004921162477,1.3261561647003808
1675854938806649446,0,2.053825577646808,1.5023905575293854,1.0217722633871598,1.4633405032568874,2.146427090353873,3.0397562599969152,1.4603512052244587,1.3260301823315028
1675854938807296037,0,2.0633080427412294,1.5009300132851298,1.0171546010916104,1.4675586644359848,2.1461072898727305,3.0392730084329225,1.461605446034602,1.3258572546243006
1675854938807765722,0,2.074695696103937,1.5012891256242744,1.0175855414347523,1.4603638610422698,2.1611634136215416,3.0375859010930197,1.464556982690396,1.320571853666503
1675854938818280220,0,2.088017244666482,1.4944582082299398,1.014188082952456,1.4671840011781025,2.159406108072471,3.0274424622308187,1.4718757605579116,1.3052004567443185
1675854938818420648,0,2.094149989873293,1.4926461762068954,1.0176665753146796,1.457299278059077,2.171941158816098,3.0166825800246104,1.483652196634731,1.3096349951560033
1675854938818618059,0,1.9648089149450652,1.4063070319524245,1.045360055505043,1.3770055184384284,1.79478041500393,2.601810566284389,1.4809685958071006,1.182274311384211
1675854938818686008,0,1.9720626155428875,1.4064419274138444,1.0459532066035822,1.3780407719024133,1.8171953340575175,2.691735365243412,1.4818997440160298,1.1972287078652626
1675854938818748950,0,1.978081663897839,1.407008827610867,1.0455834990493413,1.3721516370407252,1.8217448761471347,2.6868071210162263,1.4838989847581696,1.1991050982272207
1675854938818810701,0,1.977639008082459,1.4044753753014958,1.0384819076113814,1.3662101589512563,1.81850934152765,2.6866825101491068,1.455041246569772,1.1957678529761402
1675854938818872690,0,1.9790199675709002,1.3995379196717153,1.017779839819907,1.3433902732834815,1.8192446988652595,2.688453178145875,1.4375949316780083,1.1902828867032187
1675854938818933963,0,1.9787409763472976,1.3920839153427746,1.0118434025709977,1.3348516202208731,1.809399592825978,2.6986146754962004,1.4390652038925416,1.191909893062311
