*** FIRST HEADER ***
4
255
6
127
6
0
130
253
0
4
255
8
3
5
0
0
0
2
247
0
4
255
6
127
6
0
146
253
0
4
255
10
27
5
0
0
0
4
30
0
0
79
4
255
6
19
5
0
0
0
0
*** OTHER HEADER ***
4
255
46
27
5
0
0
0
40
34
0
134
250
*** DATA ***
29
134
229
51
192
89
169
15
100
128
5
34
120
131
177
29
129
14
58
18
244
159
80
202
74
110
44
233
216
35
81
59
73
116
131
7
*** OTHER HEADER ***
4
255
46
27
5
0
0
0
40
34
0
134
251
*** DATA ***
137
62
231
51
60
253
163
15
248
87
5
34
240
135
177
29
43
106
59
18
119
24
81
202
194
93
48
233
39
35
82
59
94
135
135
7
4
255
46
27
5
0
0
0
40
34
0
134
252
182
252
231
51
166
174
161
15
56
69
5
34
96
149
178
29
117
68
57
18
223
242
80
202
128
109
51
233
181
103
83
59
234
207
134
7
4
255
46
27
5
0
0
0
40
34
0
134
253
162
17
231
51
243
102
165
15
38
246
4
34
239
131
177
29
11
242
57
18
135
150
80
202
98
242
47
233
89
55
82
59
180
162
133
7
4
255
46
27
5
0
0
0
40
34
0
134
254
236
55
231
51
182
152
164
15
143
26
5
34
126
59
177
29
183
86
59
18
147
231
80
202
59
235
47
233
33
0
82
59
65
64
135
7
4
255
46
27
5
0
0
0
40
34
0
134
255
1
112
232
51
183
216
160
15
160
247
4
34
111
109
177
29
200
190
59
18
139
38
81
202
126
242
50
233
45
221
82
59
192
158
137
7
4
255
46
27
5
0
0
0
40
34
0
134
0
92
62
231
51
24
99
164
15
93
41
5
34
164
24
177
29
112
235
59
18
212
6
81
202
143
204
47
233
140
224
81
59
24
220
135
7
4
255
46
27
5
0
0
0
40
34
0
134
1
16
26
231
51
222
250
164
15
249
26
5
34
14
69
176
29
3
183
61
18
237
45
81
202
159
102
46
233
59
43
81
59
197
51
137
7
4
255
46
27
5
0
0
0
40
34
0
134
2
73
23
232
51
185
89
161
15
179
67
5
34
135
113
176
29
143
238
62
18
103
176
81
202
161
224
48
233
89
192
81
59
198
28
140
7
4
255
46
27
5
0
0
0
40
34
0
134
3
218
46
232
51
168
118
161
15
119
18
5
34
36
209
175
29
88
1
64
18
27
181
81
202
123
69
48
233
51
100
81
59
26
28
141
7
4
255
46
27
5
0
0
0
40
34
0
134
4
42
226
230
51
73
148
164
15
109
159
5
34
163
62
176
29
214
78
63
18
251
180
81
202
33
223
45
233
217
200
80
59
185
159
138
7
4
255
46
27
5
0
0
0
40
34
0
134
5
239
165
231
51
140
68
162
15
193
132
5
34
12
228
176
29
99
35
62
18
176
170
81
202
187
115
48
233
246
192
81
59
198
206
138
7
4
255
46
27
5
0
0
0
40
34
0
134
6
139
255
231
51
29
215
161
15
84
46
5
34
245
204
175
29
33
54
64
18
189
196
81
202
100
212
47
233
139
58
81
59
180
13
141
7
4
255
46
27
5
0
0
0
40
34
0
134
7
164
104
231
51
49
146
163
15
230
72
5
34
75
216
175
29
124
200
63
18
189
165
81
202
226
139
46
233
121
231
80
59
117
185
139
7
4
255
46
27
5
0
0
0
40
34
0
134
8
242
23
232
51
99
97
161
15
41
63
5
34
209
202
176
29
129
247
61
18
212
141
81
202
95
86
49
233
78
10
82
59
58
59
139
7
4
255
46
27
5
0
0
0
40
34
0
134
9
120
170
232
51
89
241
159
15
176
8
5
34
39
247
175
29
128
9
64
18
230
204
81
202
72
144
49
233
66
200
81
59
70
241
141
7
4
255
46
27
5
0
0
0
40
34
0
134
10
85
91
232
51
80
191
160
15
206
34
5
34
118
74
175
29
68
202
65
18
2
6
82
202
120
251
47
233
228
7
81
59
79
17
143
7
4
255
46
27
5
0
0
0
40
34
0
134
11
210
122
232
51
68
181
160
15
100
247
4
34
2
117
175
29
85
234
64
18
96
209
81
202
120
122
48
233
118
79
81
59
240
94
142
7
4
255
46
27
5
0
0
0
40
34
0
134
12
10
53
232
51
25
179
161
15
66
237
4
34
155
141
175
29
50
56
64
18
104
162
81
202
172
251
47
233
102
67
81
59
208
62
141
7
4
255
46
27
5
0
0
0
40
34
0
134
13
91
33
232
51
91
108
162
15
40
182
4
34
93
138
174
29
156
6
66
18
76
176
81
202
154
125
46
233
68
132
80
59
164
153
142
7
4
255
46
27
5
0
0
0
40
34
0
134
14
137
226
231
51
41
144
162
15
140
5
5
34
103
154
175
29
150
12
64
18
169
154
81
202
158
80
47
233
141
22
81
59
65
154
140
7
4
255
46
27
5
0
0
0
40
34
0
134
15
181
210
231
51
250
8
163
15
37
230
4
34
2
86
176
29
4
167
61
18
224
49
81
202
197
32
48
233
108
179
81
59
62
62
138
7
4
255
46
27
5
0
0
0
40
34
0
134
16
66
214
231
51
144
71
163
15
252
195
4
34
156
209
176
29
82
244
59
18
140
226
80
202
176
201
48
233
148
40
82
59
121
163
136
7
4
255
46
27
5
0
0
0
40
34
0
134
17
45
155
231
51
214
106
163
15
229
13
5
34
148
31
177
29
76
228
59
18
60
8
81
202
195
168
48
233
50
36
82
59
58
98
136
7
4
255
46
27
5
0
0
0
40
34
0
134
18
56
105
231
51
42
206
163
15
115
44
5
34
166
208
176
29
206
225
60
18
179
50
81
202
93
208
47
233
19
188
81
59
205
6
137
7
4
255
46
27
5
0
0
0
40
34
0
134
19
5
147
230
51
164
144
165
15
26
164
5
34
170
139
177
29
136
163
59
18
5
46
81
202
118
220
46
233
31
167
81
59
243
200
134
7
4
255
46
27
5
0
0
0
40
34
0
134
20
127
8
231
51
175
182
164
15
33
85
5
34
13
5
177
29
137
119
60
18
146
43
81
202
125
56
47
233
114
159
81
59
96
28
136
7
4
255
46
27
5
0
0
0
40
34
0
134
21
96
6
231
51
156
207
164
15
229
76
5
34
96
232
176
29
109
163
60
18
161
42
81
202
93
14
47
233
95
139
81
59
207
58
136
7
4
255
46
27
5
0
0
0
40
34
0
134
22
75
48
231
51
140
125
164
15
178
50
5
34
198
80
177
29
144
105
59
18
191
249
80
202
144
245
47
233
129
1
82
59
197
84
135
7
4
255
46
27
5
0
0
0
40
34
0
134
23
20
82
231
51
152
193
163
15
141
85
5
34
10
131
177
29
190
132
59
18
202
30
81
202
227
131
48
233
180
42
82
59
91
191
135
7
4
255
46
27
5
0
0
0
40
34
0
134
24
42
10
231
51
247
85
164
15
16
127
5
34
223
86
177
29
152
52
60
18
21
66
81
202
192
166
47
233
135
205
81
59
111
255
135
7
4
255
46
27
5
0
0
0
40
34
0
134
25
151
107
230
51
225
233
165
15
60
183
5
34
185
138
177
29
252
186
59
18
116
53
81
202
132
129
46
233
98
136
81
59
144
167
134
7
4
255
46
27
5
0
0
0
40
34
0
134
26
28
170
230
51
67
73
165
15
185
161
5
34
69
189
176
29
6
206
61
18
59
120
81
202
101
4
46
233
123
15
81
59
196
228
136
7
4
255
46
27
5
0
0
0
40
34
0
134
27
49
6
231
51
105
252
164
15
147
56
5
34
139
24
175
29
24
19
65
18
27
172
81
202
139
178
44
233
59
34
80
59
90
48
140
7
4
255
46
27
5
0
0
0
40
34
0
134
28
137
25
230
51
82
71
167
15
161
147
5
34
2
37
176
29
177
133
62
18
114
98
81
202
157
245
43
233
104
80
80
59
31
137
136
7
4
255
46
27
5
0
0
0
40
34
0
134
29
80
92
230
51
210
133
166
15
201
134
5
34
48
15
176
29
237
221
62
18
94
116
81
202
15
113
44
233
84
104
80
59
206
66
137
7
4
255
46
27
5
0
0
0
40
34
0
134
30
67
25
231
51
101
95
164
15
177
99
5
34
79
170
175
29
222
65
64
18
145
181
81
202
123
155
45
233
7
140
80
59
81
177
139
7
4
255
46
27
5
0
0
0
40
34
0
134
31
80
108
230
51
86
180
166
15
250
88
5
34
150
101
176
29
104
114
61
18
157
40
81
202
208
5
45
233
221
203
80
59
222
245
135
7
4
255
46
27
5
0
0
0
40
34
0
134
32
49
189
229
51
72
4
169
15
184
83
5
34
144
255
175
29
108
163
61
18
216
0
81
202
0
243
42
233
140
32
80
59
18
242
134
7
4
255
46
27
5
0
0
0
40
34
0
134
33
168
38
230
51
69
249
167
15
193
45
5
34
17
219
175
29
77
247
61
18
39
9
81
202
63
179
43
233
63
77
80
59
239
216
135
7
4
255
46
27
5
0
0
0
40
34
0
134
34
146
201
229
51
135
212
168
15
212
86
5
34
209
16
176
29
61
143
61
18
134
3
81
202
144
37
43
233
94
51
80
59
41
247
134
7
4
255
46
27
5
0
0
0
40
34
0
134
35
162
102
229
51
163
152
169
15
124
147
5
34
67
72
176
29
89
95
61
18
233
17
81
202
194
140
42
233
81
14
80
59
151
75
134
7
4
255
46
27
5
0
0
0
40
34
0
134
36
59
135
229
51
199
88
169
15
40
127
5
34
61
85
176
29
199
28
61
18
120
2
81
202
186
231
42
233
166
51
80
59
89
57
134
7
4
255
46
27
5
0
0
0
40
34
0
134
37
67
192
229
51
146
227
168
15
28
94
5
34
40
201
176
29
190
190
59
18
174
203
80
202
30
0
44
233
54
190
80
59
196
71
133
7
4
255
46
27
5
0
0
0
40
34
0
134
38
193
103
229
51
51
113
169
15
235
163
5
34
237
53
177
29
127
47
59
18
48
215
80
202
101
196
43
233
216
196
80
59
18
94
132
7
4
255
46
27
5
0
0
0
40
34
0
134
39
76
105
229
51
93
172
169
15
80
134
5
34
1
33
177
29
33
2
59
18
55
188
80
202
182
172
43
233
41
195
80
59
102
35
132
7
4
255
46
27
5
0
0
0
40
34
0
134
40
226
162
229
51
89
173
168
15
226
163
5
34
119
89
177
29
204
21
59
18
29
226
80
202
6
121
44
233
117
0
81
59
63
172
132
7
4
255
46
27
5
0
0
0
40
34
0
134
41
79
53
229
51
2
240
169
15
124
182
5
34
180
11
177
29
232
163
59
18
94
231
80
202
208
26
43
233
148
127
80
59
153
125
132
7
4
255
46
27
5
0
0
0
40
34
0
134
42
99
255
228
51
223
150
170
15
229
187
5
34
191
218
176
29
203
248
59
18
33
233
80
202
155
96
42
233
105
57
80
59
164
113
132
7
4
255
46
27
5
0
0
0
40
34
0
134
43
223
38
229
51
159
65
170
15
243
166
5
34
101
76
177
29
77
182
58
18
115
186
80
202
25
78
43
233
17
179
80
59
31
131
131
7
4
255
46
27
5
0
0
0
40
34
0
134
44
137
178
229
51
67
37
169
15
208
84
5
34
239
122
176
29
156
90
60
18
91
213
80
202
46
123
43
233
245
124
80
59
233
182
133
7
4
255
46
27
5
0
0
0
40
34
0
134
45
91
38
229
51
121
226
169
15
136
211
5
34
131
216
177
29
118
226
57
18
8
192
80
202
50
3
44
233
72
13
81
59
14
225
130
7
4
255
46
27
5
0
0
0
40
34
0
134
46
198
232
228
51
87
188
170
15
38
205
5
34
221
155
178
29
143
139
55
18
209
96
80
202
84
117
44
233
185
139
81
59
254
84
128
7
4
255
46
27
5
0
0
0
40
34
0
134
47
204
222
228
51
240
117
170
15
201
252
5
34
134
109
178
29
250
155
56
18
161
163
80
202
93
34
44
233
165
74
81
59
13
91
129
7
4
255
46
27
5
0
0
0
40
34
0
134
48
122
76
229
51
163
14
170
15
15
133
5
34
51
148
177
29
255
177
57
18
202
137
80
202
251
0
44
233
132
16
81
59
215
192
130
7
4
255
46
27
5
0
0
0
40
34
0
134
49
71
9
229
51
206
250
170
15
206
126
5
34
164
12
178
29
227
23
56
18
54
65
80
202
230
4
44
233
32
80
81
59
27
214
128
7
4
255
46
27
5
0
0
0
40
34
0
134
50
254
95
229
51
52
59
170
15
198
82
5
34
120
119
177
29
82
102
57
18
52
96
80
202
248
7
44
233
0
28
81
59
100
123
130
7
4
255
46
27
5
0
0
0
40
34
0
134
51
29
130
229
51
122
140
169
15
39
111
5
34
114
23
177
29
149
231
58
18
233
173
80
202
171
216
43
233
191
211
80
59
18
38
132
7
4
255
46
27
5
0
0
0
40
34
0
134
52
163
69
229
51
46
81
170
15
219
112
5
34
164
245
176
29
0
1
59
18
215
163
80
202
55
35
43
233
255
151
80
59
121
214
131
7
4
255
46
27
5
0
0
0
40
34
0
134
53
145
114
229
51
255
107
170
15
246
31
5
34
191
173
176
29
64
217
58
18
148
110
80
202
218
43
43
233
32
157
80
59
50
200
131
7
4
255
46
27
5
0
0
0
40
34
0
134
54
169
82
229
51
56
243
170
15
90
18
5
34
254
160
177
29
164
14
56
18
137
2
80
202
180
31
44
233
247
84
81
59
95
1
129
7
4
255
46
27
5
0
0
0
40
34
0
134
55
121
158
229
51
165
211
169
15
28
35
5
34
119
91
178
29
217
184
54
18
182
245
79
202
182
190
45
233
222
9
82
59
150
89
128
7
4
255
46
27
5
0
0
0
40
34
0
134
56
33
158
229
51
12
57
169
15
210
106
5
34
198
171
178
29
132
221
54
18
146
46
80
202
106
38
46
233
110
39
82
59
77
171
128
7
4
255
46
27
5
0
0
0
40
34
0
134
57
129
23
230
51
2
96
168
15
149
21
5
34
246
77
178
29
1
54
55
18
177
24
80
202
91
192
46
233
143
69
82
59
68
145
129
7
4
255
46
27
5
0
0
0
40
34
0
134
58
212
106
230
51
191
7
168
15
22
191
4
34
111
178
177
29
201
255
55
18
34
7
80
202
118
179
46
233
228
30
82
59
158
155
130
7
4
255
46
27
5
0
0
0
40
34
0
134
59
133
146
230
51
196
112
167
15
2
200
4
34
254
70
177
29
128
98
57
18
26
68
80
202
240
129
46
233
198
217
81
59
230
38
132
7
4
255
46
27
5
0
0
0
40
34
0
134
60
209
165
230
51
247
7
167
15
204
218
4
34
103
113
177
29
127
74
57
18
103
83
80
202
2
229
46
233
207
252
81
59
46
63
132
7
4
255
46
27
5
0
0
0
40
34
0
134
61
43
41
231
51
73
29
166
15
87
126
4
34
185
255
176
29
103
201
57
18
159
63
80
202
231
123
47
233
187
19
82
59
46
84
133
7
4
255
46
27
5
0
0
0
40
34
0
134
62
161
224
230
51
95
197
166
15
181
159
4
34
27
35
178
29
47
244
54
18
167
234
79
202
25
82
48
233
35
198
82
59
39
94
130
7
4
255
46
27
5
0
0
0
40
34
0
134
63
6
13
231
51
128
98
166
15
112
137
4
34
120
225
177
29
162
132
55
18
94
247
79
202
180
97
48
233
218
179
82
59
221
29
131
7
4
255
46
27
5
0
0
0
40
34
0
134
64
183
216
230
51
19
178
166
15
161
180
4
34
65
64
178
29
56
231
54
18
99
246
79
202
21
102
48
233
49
207
82
59
55
83
130
7
4
255
46
27
5
0
0
0
40
34
0
134
65
102
220
230
51
80
171
166
15
38
178
4
34
40
144
177
29
201
172
56
18
227
46
80
202
52
137
47
233
179
69
82
59
74
242
131
7
4
255
46
27
5
0
0
0
40
34
0
134
66
242
119
230
51
121
113
167
15
54
240
4
34
29
5
177
29
159
121
58
18
111
126
80
202
204
239
45
233
209
131
81
59
121
17
133
7
4
255
46
27
5
0
0
0
40
34
0
134
67
86
117
230
51
246
121
167
15
78
240
4
34
46
10
177
29
211
105
58
18
220
123
80
202
108
240
45
233
114
134
81
59
190
254
132
7
4
255
46
27
5
0
0
0
40
34
0
134
68
43
212
230
51
242
49
166
15
138
246
4
34
36
62
177
29
82
99
58
18
101
150
80
202
190
11
47
233
253
222
81
59
243
159
133
7
4
255
46
27
5
0
0
0
40
34
0
134
69
20
25
231
51
125
188
165
15
110
195
4
34
147
218
176
29
207
4
59
18
41
150
80
202
238
38
47
233
89
204
81
59
96
133
134
7
4
255
46
27
5
0
0
0
40
34
0
134
70
151
47
231
51
244
234
165
15
175
139
4
34
214
164
177
29
23
81
56
18
55
27
80
202
111
97
48
233
153
148
82
59
206
19
132
7
4
255
46
27
5
0
0
0
40
34
0
134
71
15
49
231
51
204
73
166
15
216
93
4
34
98
210
177
29
6
63
55
18
101
215
79
202
4
160
48
233
193
207
82
59
208
254
130
7
4
255
46
27
5
0
0
0
40
34
0
134
72
212
4
231
51
244
117
166
15
0
141
4
34
116
70
177
29
180
26
57
18
110
43
80
202
68
133
47
233
2
50
82
59
185
129
132
7
4
255
46
27
5
0
0
0
40
34
0
134
73
38
172
231
51
60
235
164
15
69
67
4
34
88
194
176
29
131
50
58
18
91
65
80
202
3
86
48
233
41
68
82
59
182
107
134
7
4
255
46
27
5
0
0
0
40
34
0
134
74
135
46
231
51
93
54
166
15
168
106
4
34
31
18
177
29
20
92
57
18
173
36
80
202
254
159
47
233
181
46
82
59
233
236
132
7
4
255
46
27
5
0
0
0
40
34
0
134
75
248
250
230
51
45
24
167
15
108
81
4
34
139
12
177
29
193
217
56
18
90
245
79
202
114
35
47
233
42
27
82
59
36
13
132
7
4
255
46
27
5
0
0
0
40
34
0
134
76
98
193
230
51
231
166
167
15
150
103
4
34
75
204
177
29
43
242
54
18
246
185
79
202
10
154
47
233
60
139
82
59
55
0
130
7
4
255
46
27
5
0
0
0
40
34
0
134
77
70
253
230
51
90
21
167
15
48
79
4
34
64
182
177
29
109
27
55
18
195
187
79
202
152
5
48
233
251
164
82
59
165
123
130
7
4
255
46
27
5
0
0
0
40
34
0
134
78
202
242
230
51
56
89
167
15
243
63
4
34
4
162
177
29
238
15
55
18
173
172
79
202
107
211
47
233
153
150
82
59
204
84
130
7
4
255
46
27
5
0
0
0
40
34
0
134
79
95
127
230
51
158
42
169
15
217
25
4
34
230
181
177
29
99
215
53
18
165
77
79
202
181
230
46
233
185
123
82
59
179
89
128
7
4
255
46
27
5
0
0
0
40
34
0
134
80
18
233
229
51
93
147
170
15
10
89
4
34
235
94
178
29
75
79
52
18
43
38
79
202
214
108
46
233
207
148
82
59
59
32
126
7
4
255
46
27
5
0
0
0
40
34
0
134
81
162
93
230
51
89
169
169
15
243
18
4
34
199
159
178
29
158
57
51
18
232
235
78
202
105
202
47
233
204
39
83
59
236
188
125
7
4
255
46
27
5
0
0
0
40
34
0
134
82
58
113
230
51
38
62
169
15
112
38
4
34
70
178
178
29
94
98
51
18
241
3
79
202
8
15
48
233
155
55
83
59
194
16
126
7
4
255
46
27
5
0
0
0
40
34
0
134
83
162
35
230
51
38
247
169
15
161
71
4
34
28
96
179
29
193
184
49
18
219
211
78
202
215
64
48
233
79
137
83
59
41
33
124
7
4
255
46
27
5
0
0
0
40
34
0
134
84
37
57
230
51
2
237
169
15
121
43
4
34
20
144
179
29
169
243
48
18
156
171
78
202
65
176
48
233
108
200
83
59
106
128
123
7
4
255
46
27
5
0
0
0
40
34
0
134
85
11
213
229
51
86
255
170
15
224
69
4
34
172
124
179
29
31
16
49
18
130
170
78
202
54
179
47
233
68
119
83
59
122
0
123
7
4
255
46
27
5
0
0
0
40
34
0
134
86
38
14
230
51
204
93
170
15
41
57
4
34
48
22
179
29
59
47
50
18
26
211
78
202
175
175
47
233
224
73
83
59
150
93
124
7
4
255
46
27
5
0
0
0
40
34
0
134
87
9
113
229
51
150
77
172
15
116
68
4
34
212
237
178
29
77
14
50
18
161
177
78
202
214
21
46
233
3
209
82
59
5
58
123
7
4
255
46
27
5
0
0
0
40
34
0
134
88
57
254
228
51
67
59
173
15
25
134
4
34
3
233
179
29
76
225
47
18
219
127
78
202
167
87
46
233
5
61
83
59
234
169
120
7
4
255
46
27
5
0
0
0
40
34
0
134
89
36
31
229
51
127
232
172
15
3
122
4
34
43
104
180
29
50
146
46
18
183
84
78
202
17
72
47
233
153
185
83
59
209
170
119
7
4
255
46
27
5
0
0
0
40
34
0
134
90
164
140
229
51
172
220
171
15
93
78
4
34
114
144
180
29
184
14
46
18
123
62
78
202
153
117
48
233
165
40
84
59
194
209
119
7
4
255
46
27
5
0
0
0
40
34
0
134
91
133
151
229
51
175
46
172
15
251
23
4
34
77
246
180
29
169
87
44
18
52
226
77
202
1
19
49
233
126
153
84
59
208
49
118
7
4
255
46
27
5
0
0
0
40
34
0
134
92
221
128
229
51
197
123
172
15
6
23
4
34
213
38
181
29
189
188
43
18
160
200
77
202
172
30
49
233
148
180
84
59
22
126
117
7
4
255
46
27
5
0
0
0
40
34
0
134
93
146
112
229
51
130
136
172
15
11
42
4
34
150
112
180
29
167
197
45
18
26
20
78
202
55
12
48
233
166
17
84
59
147
70
119
7
4
255
46
27
5
0
0
0
40
34
0
134
94
95
3
229
51
244
107
173
15
209
103
4
34
128
175
179
29
222
20
48
18
130
113
78
202
123
24
46
233
88
32
83
59
175
204
120
7
4
255
46
27
5
0
0
0
40
34
0
134
95
255
4
229
51
238
67
173
15
196
119
4
34
82
46
180
29
156
3
47
18
30
91
78
202
72
193
46
233
174
126
83
59
21
227
119
7
4
255
46
27
5
0
0
0
40
34
0
134
96
67
88
228
51
173
105
175
15
215
129
4
34
239
139
180
29
73
113
45
18
177
6
78
202
89
178
45
233
169
104
83
59
180
85
117
7
4
255
46
27
5
0
0
0
40
34
0
134
97
17
60
229
51
80
71
173
15
56
34
4
34
32
123
180
29
154
84
45
18
170
243
77
202
126
162
47
233
224
1
84
59
219
128
118
7
4
255
46
27
5
0
0
0
40
34
0
134
98
199
240
228
51
64
217
173
15
200
81
4
34
230
127
180
29
191
150
45
18
182
12
78
202
132
253
46
233
8
199
83
59
52
92
118
7
4
255
46
27
5
0
0
0
40
34
0
134
99
236
82
229
51
3
183
173
15
214
203
3
34
89
97
179
29
10
35
47
18
98
244
77
202
180
103
46
233
162
86
83
59
131
15
120
7
4
255
46
27
5
0
0
0
40
34
0
134
100
161
12
230
51
246
105
171
15
240
191
3
34
168
61
179
29
116
39
48
18
215
56
78
202
166
223
47
233
111
162
83
59
141
49
122
7
4
255
46
27
5
0
0
0
40
34
0
134
101
88
237
229
51
97
184
171
15
141
203
3
34
67
96
179
29
32
210
47
18
18
47
78
202
133
197
47
233
226
167
83
59
154
182
121
7
4
255
46
27
5
0
0
0
40
34
0
134
102
132
157
229
51
231
182
172
15
22
208
3
34
61
78
179
29
239
182
47
18
227
27
78
202
116
248
46
233
251
108
83
59
42
24
121
7
4
255
46
27
5
0
0
0
40
34
0
134
103
237
239
230
51
85
156
169
15
191
57
3
34
35
135
178
29
185
53
49
18
111
47
78
202
39
247
48
233
121
201
83
59
56
80
124
7
4
255
46
27
5
0
0
0
40
34
0
134
104
23
37
231
51
130
27
169
15
242
35
3
34
38
93
178
29
9
148
49
18
42
56
78
202
114
57
49
233
144
206
83
59
222
241
124
7
4
255
46
27
5
0
0
0
40
34
0
134
105
134
130
231
51
132
65
168
15
182
249
2
34
72
7
179
29
191
177
47
18
228
242
77
202
178
235
50
233
246
155
84
59
210
192
123
7
4
255
46
27
5
0
0
0
40
34
0
134
106
72
121
231
51
11
119
168
15
43
239
2
34
125
81
179
29
27
194
46
18
199
202
77
202
81
55
51
233
71
215
84
59
217
208
122
7
4
255
46
27
5
0
0
0
40
34
0
134
107
148
171
231
51
197
8
168
15
43
213
2
34
191
127
178
29
84
195
48
18
154
4
78
202
161
152
50
233
16
87
84
59
218
229
124
7
4
255
46
27
5
0
0
0
40
34
0
134
108
30
201
230
51
71
160
170
15
56
253
2
34
91
180
177
29
206
94
50
18
139
31
78
202
126
140
47
233
183
41
83
59
22
241
124
7
4
255
46
27
5
0
0
0
40
34
0
134
109
152
59
230
51
209
200
171
15
153
76
3
34
91
47
178
29
224
143
49
18
110
29
78
202
153
234
46
233
224
26
83
59
87
121
123
7
4
255
46
27
5
0
0
0
40
34
0
134
110
124
241
230
51
229
111
169
15
213
75
3
34
143
83
178
29
167
251
49
18
249
85
78
202
137
183
48
233
129
152
83
59
107
18
125
7
4
255
46
27
5
0
0
0
40
34
0
134
111
177
42
231
51
170
164
168
15
24
82
3
34
250
62
178
29
17
135
50
18
215
121
78
202
240
30
49
233
99
163
83
59
22
247
125
7
4
255
46
27
5
0
0
0
40
34
0
134
112
231
184
230
51
249
228
169
15
65
108
3
34
71
120
179
29
185
49
47
18
8
6
78
202
243
179
49
233
124
84
84
59
103
65
122
7
4
255
46
27
5
0
0
0
40
34
0
134
113
125
67
231
51
81
7
169
15
213
254
2
34
241
169
178
29
62
111
48
18
115
255
77
202
167
226
49
233
169
45
84
59
163
3
124
7
4
255
46
27
5
0
0
0
40
34
0
134
114
3
185
231
51
0
73
168
15
23
163
2
34
126
191
177
29
230
26
50
18
176
14
78
202
221
188
49
233
192
220
83
59
139
17
126
7
4
255
46
27
5
0
0
0
40
34
0
134
115
17
130
231
51
134
158
168
15
147
207
2
34
8
212
177
29
29
64
50
18
168
38
78
202
141
90
49
233
196
186
83
59
102
243
125
7
4
255
46
27
5
0
0
0
40
34
0
134
116
164
58
232
51
107
70
167
15
79
84
2
34
179
176
176
29
72
95
52
18
168
61
78
202
75
131
49
233
242
110
83
59
83
199
128
7
4
255
46
27
5
0
0
0
40
34
0
134
117
236
119
232
51
143
104
166
15
222
92
2
34
211
98
177
29
94
242
50
18
118
36
78
202
190
246
50
233
110
25
84
59
40
236
127
7
4
255
46
27
5
0
0
0
40
34
0
134
118
87
48
233
51
27
96
164
15
207
50
2
34
249
203
177
29
158
32
50
18
135
23
78
202
165
35
53
233
3
227
84
59
59
78
128
7
4
255
46
27
5
0
0
0
40
34
0
134
119
210
222
232
51
8
106
165
15
232
52
2
34
10
225
177
29
238
148
49
18
216
243
77
202
114
133
52
233
186
199
84
59
56
69
127
7
4
255
46
27
5
0
0
0
40
34
0
134
120
71
233
232
51
140
167
165
15
168
8
2
34
20
214
176
29
166
191
51
18
55
28
78
202
134
65
51
233
93
13
84
59
217
46
129
7
4
255
46
27
5
0
0
0
40
34
0
134
121
86
189
232
51
46
219
165
15
250
51
2
34
22
181
176
29
129
120
52
18
163
72
78
202
132
178
50
233
7
199
83
59
101
168
129
7
4
255
46
27
5
0
0
0
40
34
0
134
122
206
209
231
51
186
131
168
15
62
98
2
34
244
118
176
29
253
174
52
18
192
56
78
202
144
73
48
233
192
2
83
59
19
101
128
7
4
255
46
27
5
0
0
0
40
34
0
134
123
53
161
231
51
50
66
169
15
179
84
2
34
188
230
175
29
201
192
53
18
219
69
78
202
83
31
47
233
111
124
82
59
61
0
129
7
4
255
46
27
5
0
0
0
40
34
0
134
124
166
155
231
51
181
8
169
15
165
119
2
34
61
234
176
29
134
143
51
18
13
23
78
202
105
100
48
233
217
55
83
59
162
18
127
7
4
255
46
27
5
0
0
0
40
34
0
134
125
94
64
233
51
5
133
165
15
155
147
1
34
43
165
175
29
189
169
53
18
204
25
78
202
201
122
50
233
20
128
83
59
178
47
131
7
4
255
46
27
5
0
0
0
40
34
0
134
126
239
30
233
51
174
96
165
15
96
215
1
34
214
63
177
29
230
63
50
18
158
212
77
202
104
69
52
233
198
149
84
59
222
13
128
7
4
255
46
27
5
0
0
0
40
34
0
134
127
186
140
233
51
107
160
164
15
51
136
1
34
125
88
177
29
249
107
49
18
115
154
77
202
155
95
53
233
115
9
85
59
92
212
127
7
4
255
46
27
5
0
0
0
40
34
0
134
128
98
91
233
51
12
46
165
15
101
146
1
34
112
28
176
29
198
141
52
18
113
251
77
202
145
83
51
233
43
238
83
59
61
92
130
7
4
255
46
27
5
0
0
0
40
34
0
134
129
170
124
233
51
150
164
165
15
10
41
1
34
118
11
175
29
24
16
54
18
136
231
77
202
244
59
50
233
86
88
83
59
207
170
131
7
4
255
46
27
5
0
0
0
40
34
0
134
130
82
124
232
51
73
127
167
15
227
213
1
34
235
72
175
29
141
159
54
18
40
58
78
202
123
68
48
233
16
175
82
59
4
235
130
7
4
255
46
27
5
0
0
0
40
34
0
134
131
45
252
232
51
35
176
165
15
215
231
1
34
85
22
175
29
64
241
55
18
198
144
78
202
171
37
49
233
140
193
82
59
127
4
133
7
4
255
46
27
5
0
0
0
40
34
0
134
132
178
144
233
51
209
167
163
15
123
244
1
34
31
77
176
29
25
156
53
18
9
114
78
202
101
12
52
233
21
2
84
59
203
239
131
7
4
255
46
27
5
0
0
0
40
34
0
134
133
253
119
234
51
5
237
161
15
3
95
1
34
115
244
174
29
234
33
56
18
139
142
78
202
61
90
52
233
133
176
83
59
18
95
135
7
4
255
46
27
5
0
0
0
40
34
0
134
134
184
221
233
51
133
62
164
15
151
57
1
34
59
132
174
29
146
22
56
18
170
76
78
202
227
104
50
233
144
23
83
59
29
50
134
7
4
255
46
27
5
0
0
0
40
34
0
134
135
103
231
232
51
229
60
167
15
247
80
1
34
167
55
174
29
58
23
56
18
143
34
78
202
159
212
47
233
55
77
82
59
212
155
132
7
4
255
46
27
5
0
0
0
40
34
0
134
136
164
50
233
51
214
81
166
15
77
74
1
34
206
53
173
29
240
243
58
18
187
140
78
202
97
48
47
233
33
170
81
59
158
175
135
7
4
255
46
27
5
0
0
0
40
34
0
134
137
4
129
232
51
16
104
166
15
52
79
2
34
122
157
174
29
211
2
58
18
177
1
79
202
36
112
47
233
91
238
81
59
52
87
134
7
4
255
46
27
5
0
0
0
40
34
0
134
138
134
125
233
51
99
192
164
15
186
144
1
34
231
202
173
29
185
182
58
18
88
202
78
202
182
156
48
233
214
38
82
59
0
41
136
7
4
255
46
27
5
0
0
0
40
34
0
134
139
137
220
232
51
85
25
166
15
190
231
1
34
17
115
175
29
235
219
54
18
242
101
78
202
86
86
49
233
246
250
82
59
21
211
131
7
4
255
46
27
5
0
0
0
40
34
0
134
140
199
39
233
51
108
115
165
15
60
193
1
34
186
38
175
29
115
115
55
18
38
111
78
202
56
158
49
233
50
248
82
59
6
195
132
7
4
255
46
27
5
0
0
0
40
34
0
134
141
151
205
232
51
12
62
166
15
169
237
1
34
24
225
174
29
250
90
56
18
55
151
78
202
91
118
48
233
165
123
82
59
48
24
133
7
4
255
46
27
5
0
0
0
40
34
0
134
142
78
231
232
51
96
49
166
15
63
204
1
34
74
114
174
29
143
37
57
18
181
158
78
202
175
32
48
233
195
64
82
59
203
228
133
7
4
255
46
27
5
0
0
0
40
34
0
134
143
83
32
233
51
152
152
165
15
131
187
1
34
190
134
174
29
123
247
56
18
96
154
78
202
13
189
48
233
56
119
82
59
130
17
134
7
4
255
46
27
5
0
0
0
40
34
0
134
144
145
68
233
51
64
61
165
15
56
174
1
34
60
153
174
29
203
194
56
18
183
146
78
202
152
39
49
233
127
159
82
59
239
22
134
7
4
255
46
27
5
0
0
0
40
34
0
134
145
25
234
232
51
244
89
166
15
84
181
1
34
24
114
175
29
203
64
54
18
200
48
78
202
232
115
49
233
140
25
83
59
99
59
131
7
4
255
46
27
5
0
0
0
40
34
0
134
146
88
89
233
51
122
83
164
15
11
250
1
34
14
154
176
29
84
168
52
18
233
73
78
202
133
242
51
233
165
31
84
59
226
183
130
7
4
255
46
27
5
0
0
0
40
34
0
134
147
186
249
233
51
65
157
162
15
190
206
1
34
213
100
175
29
253
237
55
18
14
187
78
202
10
205
51
233
6
146
83
59
209
163
134
7
4
255
46
27
5
0
0
0
40
34
0
134
148
195
93
233
51
18
87
164
15
161
241
1
34
50
192
175
29
97
199
54
18
160
137
78
202
233
224
50
233
2
120
83
59
51
165
132
7
4
255
46
27
5
0
0
0
40
34
0
134
149
14
177
232
51
76
145
165
15
187
104
2
34
92
182
175
29
74
182
55
18
59
213
78
202
237
74
49
233
205
219
82
59
121
166
132
7
4
255
46
27
5
0
0
0
40
34
0
134
150
61
134
233
51
96
8
163
15
194
77
2
34
110
144
175
29
202
173
56
18
66
20
79
202
226
254
50
233
224
58
83
59
46
226
134
7
4
255
46
27
5
0
0
0
40
34
0
134
151
211
111
233
51
254
95
163
15
181
71
2
34
174
224
175
29
204
174
55
18
23
234
78
202
77
52
51
233
25
114
83
59
183
208
133
7
4
255
46
27
5
0
0
0
40
34
0
134
152
223
127
232
51
249
42
166
15
17
109
2
34
9
61
176
29
68
47
54
18
13
155
78
202
83
138
49
233
81
43
83
59
29
243
130
7
4
255
46
27
5
0
0
0
40
34
0
134
153
50
237
232
51
144
153
164
15
221
126
2
34
98
251
175
29
198
146
55
18
91
239
78
202
181
45
50
233
7
40
83
59
211
252
132
7
4
255
46
27
5
0
0
0
40
34
0
134
154
6
94
233
51
161
254
162
15
165
143
2
34
219
90
176
29
184
83
55
18
189
14
79
202
221
170
51
233
187
167
83
59
22
145
133
7
4
255
46
27
5
0
0
0
40
34
0
134
155
115
6
233
51
13
81
164
15
175
121
2
34
151
144
175
29
101
179
56
18
61
22
79
202
39
220
49
233
131
226
82
59
217
41
134
7
4
255
46
27
5
0
0
0
40
34
0
134
156
81
209
231
51
243
213
167
15
248
178
2
34
247
135
175
29
189
48
56
18
35
229
78
202
122
17
47
233
253
28
82
59
28
200
131
7
4
255
46
27
5
0
0
0
40
34
0
134
157
212
171
232
51
205
227
164
15
128
192
2
34
121
222
174
29
13
15
59
18
176
128
79
202
26
38
48
233
88
2
82
59
33
225
135
7
4
255
46
27
5
0
0
0
40
34
0
134
158
57
2
233
51
15
218
163
15
219
182
2
34
21
255
174
29
17
251
58
18
237
139
79
202
37
21
49
233
143
78
82
59
208
92
136
7
4
255
46
27
5
0
0
0
40
34
0
134
159
152
100
232
51
104
138
165
15
153
224
2
34
52
78
175
29
252
9
58
18
207
101
79
202
93
21
48
233
163
38
82
59
131
144
134
7
4
255
46
27
5
0
0
0
40
34
0
134
160
138
97
232
51
5
108
165
15
59
243
2
34
235
160
175
29
91
111
57
18
16
95
79
202
19
122
48
233
40
94
82
59
26
12
134
7
4
255
46
27
5
0
0
0
40
34
0
134
161
5
200
232
51
134
86
164
15
118
214
2
34
22
24
176
29
173
74
56
18
158
61
79
202
108
254
49
233
60
1
83
59
124
159
133
7
4
255
46
27
5
0
0
0
40
34
0
134
162
255
201
231
51
39
248
166
15
55
36
3
34
215
19
176
29
52
65
56
18
17
56
79
202
215
182
47
233
117
82
82
59
13
24
132
7
4
255
46
27
5
0
0
0
40
34
0
134
163
224
167
231
51
118
4
167
15
162
82
3
34
246
165
175
29
137
215
57
18
55
133
79
202
58
218
46
233
101
210
81
59
9
109
133
7
4
255
46
27
5
0
0
0
40
34
0
134
164
171
207
231
51
29
59
166
15
141
114
3
34
37
35
175
29
30
198
59
18
211
228
79
202
147
138
46
233
133
111
81
59
222
134
135
7
4
255
46
27
5
0
0
0
40
34
0
134
165
229
39
232
51
68
213
165
15
201
26
3
34
140
186
174
29
213
12
60
18
0
195
79
202
43
203
46
233
168
116
81
59
44
34
136
7
4
255
46
27
5
0
0
0
40
34
0
134
166
21
203
233
51
130
77
161
15
70
176
2
34
202
158
174
29
234
194
60
18
128
241
79
202
2
97
50
233
112
110
82
59
245
77
139
7
4
255
46
27
5
0
0
0
40
34
0
134
167
153
33
233
51
191
252
162
15
191
236
2
34
93
82
175
29
10
255
58
18
80
187
79
202
237
200
49
233
176
135
82
59
69
187
136
7
4
255
46
27
5
0
0
0
40
34
0
134
168
63
196
231
51
73
158
167
15
146
224
2
34
159
202
172
29
17
221
63
18
141
252
79
202
168
99
43
233
215
207
79
59
222
194
138
7
4
255
46
27
5
0
0
0
40
34
0
134
169
205
255
230
51
4
204
168
15
111
129
3
34
50
58
174
29
94
107
61
18
30
243
79
202
229
130
43
233
166
64
80
59
150
169
135
7
4
255
46
27
5
0
0
0
40
34
0
134
170
209
124
233
51
255
246
160
15
123
79
3
34
105
216
174
29
239
246
61
18
3
122
80
202
217
249
49
233
133
38
82
59
141
75
140
7
4
255
46
27
5
0
0
0
40
34
0
134
171
90
157
235
51
49
99
155
15
240
159
2
34
225
167
173
29
151
32
65
18
218
228
80
202
98
69
53
233
94
165
82
59
18
88
146
7
4
255
46
27
5
0
0
0
40
34
0
134
172
6
123
232
51
59
194
164
15
109
26
3
34
167
57
174
29
230
184
61
18
42
13
80
202
161
224
46
233
150
57
81
59
28
52
138
7
4
255
46
27
5
0
0
0
40
34
0
134
173
68
149
231
51
246
54
167
15
202
87
3
34
130
64
173
29
118
14
64
18
132
78
80
202
32
146
43
233
230
219
79
59
156
240
138
7
4
255
46
27
5
0
0
0
40
34
0
134
174
77
176
232
51
118
254
162
15
219
152
3
34
216
213
174
29
60
17
62
18
136
129
80
202
13
37
48
233
138
149
81
59
74
54
139
7
4
255
46
27
5
0
0
0
40
34
0
134
175
85
56
234
51
2
31
158
15
166
127
3
34
210
238
174
29
153
55
63
18
98
243
80
202
250
193
51
233
160
131
82
59
73
209
142
7
4
255
46
27
5
0
0
0
40
34
0
134
176
74
238
232
51
157
168
162
15
191
97
3
34
97
72
173
29
209
163
65
18
174
220
80
202
251
172
46
233
204
146
80
59
176
182
142
7
4
255
46
27
5
0
0
0
40
34
0
134
177
64
244
231
51
91
35
165
15
109
187
3
34
197
175
173
29
229
174
64
18
144
194
80
202
191
250
44
233
202
54
80
59
30
105
140
7
4
255
46
27
5
0
0
0
40
34
0
134
178
87
114
232
51
177
29
163
15
17
233
3
34
153
8
175
29
75
90
62
18
105
182
80
202
21
218
47
233
215
118
81
59
0
69
139
7
4
255
46
27
5
0
0
0
40
34
0
134
179
40
96
232
51
174
79
163
15
209
237
3
34
160
137
175
29
117
6
61
18
76
138
80
202
161
88
48
233
40
210
81
59
123
245
137
7
4
255
46
27
5
0
0
0
40
34
0
134
180
85
253
232
51
158
194
162
15
207
62
3
34
232
109
174
29
208
65
62
18
146
88
80
202
23
77
48
233
96
150
81
59
204
168
139
7
4
255
46
27
5
0
0
0
40
34
0
134
181
66
243
232
51
35
173
162
15
13
88
3
34
167
5
174
29
32
156
63
18
162
148
80
202
137
174
47
233
130
49
81
59
64
226
140
7
4
255
46
27
5
0
0
0
40
34
0
134
182
176
82
232
51
154
185
164
15
245
91
3
34
216
15
175
29
49
63
60
18
68
3
80
202
129
155
47
233
254
175
81
59
235
197
136
7
4
255
46
27
5
0
0
0
40
34
0
134
183
140
230
231
51
215
206
165
15
123
129
3
34
227
187
175
29
30
134
58
18
155
204
79
202
77
133
47
233
113
238
81
59
187
150
134
7
4
255
46
27
5
0
0
0
40
34
0
134
184
206
126
232
51
49
191
163
15
196
139
3
34
93
247
174
29
251
84
61
18
26
84
80
202
14
224
47
233
156
156
81
59
235
45
138
7
4
255
46
27
5
0
0
0
40
34
0
134
185
220
207
232
51
144
181
162
15
49
138
3
34
38
5
174
29
95
33
64
18
168
193
80
202
91
93
47
233
74
6
81
59
114
64
141
7
4
255
46
27
5
0
0
0
40
34
0
134
186
28
45
232
51
184
205
164
15
14
140
3
34
2
200
174
29
108
116
61
18
153
68
80
202
140
232
46
233
157
75
81
59
61
190
137
7
4
255
46
27
5
0
0
0
40
34
0
134
187
87
23
232
51
191
22
165
15
177
139
3
34
17
135
174
29
77
3
62
18
61
81
80
202
139
98
46
233
107
12
81
59
235
25
138
7
4
255
46
27
5
0
0
0
40
34
0
134
188
143
27
232
51
133
242
164
15
236
149
3
34
15
95
174
29
48
147
62
18
2
108
80
202
24
56
46
233
184
233
80
59
103
170
138
7
4
255
46
27
5
0
0
0
40
34
0
134
189
107
190
231
51
103
167
165
15
217
208
3
34
211
162
174
29
167
67
62
18
115
118
80
202
99
188
45
233
121
210
80
59
228
234
137
7
4
255
46
27
5
0
0
0
40
34
0
134
190
92
38
231
51
227
137
167
15
219
218
3
34
89
76
174
29
120
154
62
18
39
100
80
202
47
242
43
233
115
56
80
59
86
59
137
7
4
255
46
27
5
0
0
0
40
34
0
134
191
251
83
231
51
153
48
167
15
93
190
3
34
51
137
174
29
69
206
61
18
101
64
80
202
255
168
44
233
213
142
80
59
67
189
136
7
4
255
46
27
5
0
0
0
40
34
0
134
192
203
76
231
51
37
140
167
15
49
159
3
34
207
54
175
29
14
152
59
18
11
224
79
202
113
122
45
233
193
36
81
59
25
155
134
7
4
255
46
27
5
0
0
0
40
34
0
134
193
255
217
231
51
215
181
166
15
84
42
3
34
193
11
175
29
219
22
59
18
95
156
79
202
158
131
46
233
3
133
81
59
119
200
134
7
4
255
46
27
5
0
0
0
40
34
0
134
194
254
106
231
51
0
217
167
15
182
77
3
34
152
237
174
29
13
97
59
18
230
164
79
202
240
95
45
233
94
33
81
59
91
101
134
7
4
255
46
27
5
0
0
0
40
34
0
134
195
19
60
231
51
26
164
167
15
175
173
3
34
228
52
175
29
209
187
59
18
33
235
79
202
237
81
45
233
113
19
81
59
178
168
134
7
4
255
46
27
5
0
0
0
40
34
0
134
196
11
193
230
51
189
24
168
15
180
51
4
34
85
17
176
29
106
191
58
18
81
15
80
202
230
88
45
233
57
66
81
59
238
76
133
7
4
255
46
27
5
0
0
0
40
34
0
134
197
12
188
230
51
152
17
168
15
161
62
4
34
124
224
175
29
47
94
59
18
54
42
80
202
249
13
45
233
82
19
81
59
134
219
133
7
4
255
46
27
5
0
0
0
40
34
0
134
198
54
111
230
51
87
248
168
15
163
73
4
34
93
177
175
29
144
167
59
18
21
41
80
202
255
33
44
233
217
191
80
59
163
161
133
7
4
255
46
27
5
0
0
0
40
34
0
134
199
39
4
230
51
127
187
169
15
38
147
4
34
255
39
176
29
102
246
58
18
130
46
80
202
218
200
43
233
200
194
80
59
234
123
132
7
4
255
46
27
5
0
0
0
40
34
0
134
200
116
230
229
51
19
30
169
15
229
8
5
34
149
174
176
29
205
10
59
18
225
127
80
202
107
52
44
233
17
230
80
59
24
172
132
7
4
255
46
27
5
0
0
0
40
34
0
134
201
60
254
229
51
215
81
168
15
160
66
5
34
239
67
177
29
118
103
58
18
4
155
80
202
194
44
45
233
46
78
81
59
159
104
132
7
4
255
46
27
5
0
0
0
40
34
0
134
202
89
54
230
51
170
11
168
15
83
13
5
34
160
150
177
29
29
25
57
18
62
87
80
202
243
23
46
233
110
199
81
59
205
117
131
7
4
255
46
27
5
0
0
0
40
34
0
134
203
193
149
229
51
130
130
169
15
204
85
5
34
218
194
177
29
106
233
56
18
128
95
80
202
68
228
44
233
36
115
81
59
168
104
130
7
4
255
46
27
5
0
0
0
40
34
0
134
204
10
94
229
51
155
35
170
15
158
96
5
34
235
103
177
29
251
187
57
18
175
116
80
202
78
239
43
233
233
7
81
59
12
207
130
7
4
255
46
27
5
0
0
0
40
34
0
134
205
251
108
229
51
191
131
170
15
143
29
5
34
181
248
176
29
244
7
58
18
248
80
80
202
159
128
43
233
46
215
80
59
134
255
130
7
4
255
46
27
5
0
0
0
40
34
0
134
206
229
133
230
51
59
80
167
15
62
234
4
34
85
234
176
29
134
186
58
18
166
133
80
202
166
236
45
233
168
120
81
59
12
96
133
7
4
255
46
27
5
0
0
0
40
34
0
134
207
96
254
230
51
46
78
166
15
41
169
4
34
90
6
177
29
168
26
58
18
221
94
80
202
37
35
47
233
223
237
81
59
149
113
133
7
4
255
46
27
5
0
0
0
40
34
0
134
208
211
190
229
51
107
170
169
15
195
4
5
34
233
220
176
29
133
87
58
18
158
92
80
202
139
22
44
233
30
248
80
59
251
194
131
7
4
255
46
27
5
0
0
0
40
34
0
134
209
9
147
229
51
45
97
170
15
102
243
4
34
171
235
176
29
74
196
57
18
203
50
80
202
52
198
43
233
23
245
80
59
186
230
130
7
4
255
46
27
5
0
0
0
40
34
0
134
210
122
238
230
51
28
52
166
15
100
205
4
34
16
166
176
29
76
127
59
18
186
162
80
202
182
129
46
233
36
135
81
59
236
177
134
7
4
255
46
27
5
0
0
0
40
34
0
134
211
55
64
232
51
140
86
163
15
108
27
4
34
136
32
175
29
6
144
62
18
232
213
80
202
44
135
47
233
84
87
81
59
18
66
139
7
4
255
46
27
5
0
0
0
40
34
0
134
212
70
167
229
51
105
205
170
15
177
162
4
34
231
92
175
29
111
210
60
18
228
95
80
202
181
237
41
233
24
232
79
59
33
150
133
7
4
255
46
27
5
0
0
0
40
34
0
134
213
39
186
228
51
136
40
173
15
145
246
4
34
102
43
175
29
225
102
61
18
244
118
80
202
157
146
39
233
20
27
79
59
78
191
132
7
4
255
46
27
5
0
0
0
40
34
0
134
214
158
70
230
51
98
242
167
15
40
0
5
34
156
230
175
29
28
97
61
18
129
220
80
202
238
10
44
233
65
125
80
59
158
104
135
7
4
255
46
27
5
0
0
0
40
34
0
134
215
169
39
231
51
28
126
165
15
227
201
4
34
0
43
176
29
233
243
60
18
57
221
80
202
161
99
46
233
157
68
81
59
232
98
136
7
4
255
46
27
5
0
0
0
40
34
0
134
216
116
25
231
51
54
75
166
15
53
129
4
34
112
113
175
29
204
204
61
18
77
192
80
202
241
81
45
233
207
203
80
59
252
220
136
7
4
255
46
27
5
0
0
0
40
34
0
134
217
164
54
231
51
141
33
166
15
212
103
4
34
55
184
175
29
210
222
60
18
151
150
80
202
104
240
45
233
249
31
81
59
83
38
136
7
4
255
46
27
5
0
0
0
40
34
0
134
218
34
204
230
51
100
200
167
15
199
71
4
34
84
8
176
29
45
40
59
18
232
45
80
202
99
102
45
233
62
55
81
59
132
204
133
7
4
255
46
27
5
0
0
0
40
34
0
134
219
91
212
230
51
73
35
168
15
99
17
4
34
89
17
174
29
235
145
63
18
161
151
80
202
9
235
42
233
215
195
79
59
236
179
137
7
4
255
46
27
5
0
0
0
40
34
0
134
220
140
240
230
51
8
189
166
15
61
139
4
34
254
119
174
29
16
73
64
18
163
14
81
202
145
176
43
233
11
234
79
59
134
221
138
7
4
255
46
27
5
0
0
0
40
34
0
134
221
87
202
231
51
219
200
164
15
0
37
4
34
51
27
174
29
106
210
64
18
9
10
81
202
36
39
45
233
187
67
80
59
174
137
140
7
4
255
46
27
5
0
0
0
40
34
0
134
222
49
58
231
51
26
123
166
15
58
57
4
34
136
58
174
29
230
34
64
18
173
223
80
202
16
8
44
233
49
7
80
59
46
1
139
7
4
255
46
27
5
0
0
0
40
34
0
134
223
54
23
231
51
23
126
166
15
53
109
4
34
53
132
174
29
32
238
63
18
122
246
80
202
91
24
44
233
162
22
80
59
2
185
138
7
4
255
46
27
5
0
0
0
40
34
0
134
224
248
180
231
51
235
185
164
15
123
76
4
34
127
200
173
29
141
24
66
18
56
75
81
202
255
138
44
233
74
227
79
59
59
167
141
7
4
255
46
27
5
0
0
0
40
34
0
134
225
19
107
231
51
169
196
165
15
143
66
4
34
57
3
174
29
11
10
65
18
177
15
81
202
81
47
44
233
49
240
79
59
182
44
140
7
4
255
46
27
5
0
0
0
40
34
0
134
226
82
219
231
51
254
225
164
15
140
255
3
34
126
130
173
29
255
241
65
18
102
23
81
202
42
135
44
233
152
228
79
59
110
145
141
7
4
255
46
27
5
0
0
0
40
34
0
134
227
217
135
231
51
163
146
165
15
165
45
4
34
155
38
174
29
1
135
64
18
181
246
80
202
199
158
44
233
181
37
80
59
50
217
139
7
4
255
46
27
5
0
0
0
40
34
0
134
228
0
218
231
51
80
164
164
15
233
29
4
34
254
196
173
29
230
171
65
18
84
36
81
202
167
218
44
233
110
10
80
59
141
100
141
7
4
255
46
27
5
0
0
0
40
34
0
134
229
21
232
231
51
241
69
164
15
214
51
4
34
243
46
174
29
193
243
64
18
73
32
81
202
114
132
45
233
255
91
80
59
22
229
140
7
4
255
46
27
5
0
0
0
40
34
0
134
230
142
176
232
51
6
33
162
15
66
254
3
34
72
204
173
29
39
32
66
18
228
79
81
202
32
204
46
233
66
144
80
59
147
40
143
7
4
255
46
27
5
0
0
0
40
34
0
134
231
151
196
232
51
183
202
161
15
88
7
4
34
127
204
173
29
147
85
66
18
47
98
81
202
0
250
46
233
143
150
80
59
152
129
143
7
4
255
46
27
5
0
0
0
40
34
0
134
232
126
252
232
51
76
95
161
15
101
227
3
34
116
213
173
29
120
2
66
18
222
74
81
202
213
132
47
233
114
204
80
59
195
125
143
7
4
255
46
27
5
0
0
0
40
34
0
134
233
173
100
232
51
201
147
163
15
155
199
3
34
225
5
174
29
135
120
64
18
176
223
80
202
117
106
46
233
228
176
80
59
86
1
141
7
4
255
46
27
5
0
0
0
40
34
0
134
234
209
197
232
51
153
14
163
15
155
112
3
34
159
190
172
29
224
14
67
18
6
12
81
202
207
157
45
233
34
8
80
59
251
195
143
7
4
255
46
27
5
0
0
0
40
34
0
134
235
90
168
233
51
168
111
160
15
58
75
3
34
8
161
172
29
96
221
67
18
235
65
81
202
174
122
47
233
97
121
80
59
112
234
145
7
4
255
46
27
5
0
0
0
40
34
0
134
236
116
203
233
51
250
170
159
15
0
112
3
34
120
70
173
29
145
213
66
18
158
67
81
202
198
161
48
233
106
254
80
59
70
81
145
7
4
255
46
27
5
0
0
0
40
34
0
134
237
116
169
232
51
11
192
162
15
4
192
3
34
157
147
173
29
166
213
65
18
57
23
81
202
64
114
46
233
71
125
80
59
57
174
142
7
4
255
46
27
5
0
0
0
40
34
0
134
238
234
118
232
51
253
56
163
15
136
213
3
34
187
147
173
29
197
229
65
18
197
28
81
202
116
255
45
233
109
88
80
59
197
116
142
7
4
255
46
27
5
0
0
0
40
34
0
134
239
170
154
232
51
70
38
163
15
150
167
3
34
144
60
173
29
59
83
66
18
207
17
81
202
104
223
45
233
171
59
80
59
185
245
142
7
4
255
46
27
5
0
0
0
40
34
0
134
240
114
198
232
51
15
122
163
15
60
62
3
34
113
142
172
29
226
223
66
18
105
225
80
202
154
96
45
233
69
250
79
59
254
119
143
7
4
255
46
27
5
0
0
0
40
34
0
134
241
110
3
233
51
148
46
163
15
223
3
3
34
142
255
171
29
61
208
67
18
49
228
80
202
133
49
45
233
43
196
79
59
65
146
144
7
4
255
46
27
5
0
0
0
40
34
0
134
242
170
50
233
51
147
34
163
15
76
193
2
34
185
140
171
29
215
75
68
18
200
206
80
202
172
7
45
233
68
161
79
59
156
37
145
7
4
255
46
27
5
0
0
0
40
34
0
134
243
163
221
232
51
218
82
163
15
220
44
3
34
24
55
172
29
157
161
67
18
10
243
80
202
204
35
45
233
244
200
79
59
67
67
144
7
4
255
46
27
5
0
0
0
40
34
0
134
244
57
160
232
51
251
181
163
15
3
93
3
34
171
18
172
29
178
95
68
18
147
31
81
202
197
104
44
233
71
116
79
59
217
166
144
7
4
255
46
27
5
0
0
0
40
34
0
134
245
140
103
232
51
233
235
163
15
179
154
3
34
81
25
173
29
130
72
66
18
176
250
80
202
89
61
45
233
218
10
80
59
107
139
142
7
4
255
46
27
5
0
0
0
40
34
0
134
246
34
207
232
51
98
156
163
15
49
33
3
34
8
37
173
29
172
254
64
18
254
144
80
202
47
56
46
233
88
133
80
59
116
191
141
7
4
255
46
27
5
0
0
0
40
34
0
134
247
246
76
232
51
116
226
164
15
230
81
3
34
14
208
172
29
214
238
65
18
176
179
80
202
158
161
44
233
112
229
79
59
176
218
141
7
4
255
46
27
5
0
0
0
40
34
0
134
248
100
37
232
51
16
221
165
15
0
27
3
34
68
166
172
29
26
114
65
18
46
114
80
202
84
17
44
233
184
201
79
59
65
0
141
7
4
255
46
27
5
0
0
0
40
34
0
134
249
41
86
232
51
87
245
164
15
43
59
3
34
49
197
172
29
126
199
65
18
78
160
80
202
109
168
44
233
144
236
79
59
78
183
141
7
4
255
46
27
5
0
0
0
40
34
0
134
250
213
4
233
51
117
65
163
15
15
249
2
34
133
30
173
29
217
194
64
18
12
121
80
202
217
169
46
233
188
175
80
59
0
202
141
7
4
255
46
27
5
0
0
0
40
34
0
134
251
13
244
232
51
99
212
163
15
26
207
2
34
229
72
173
29
152
177
63
18
148
51
80
202
204
186
46
233
18
221
80
59
24
153
140
7
4
255
46
27
5
0
0
0
40
34
0
134
252
131
170
232
51
172
239
164
15
9
189
2
34
176
81
173
29
68
9
63
18
60
255
79
202
247
30
46
233
36
198
80
59
23
118
139
7
4
255
46
27
5
0
0
0
40
34
0
134
253
178
184
232
51
166
161
164
15
74
203
2
34
178
76
173
29
60
87
63
18
249
22
80
202
186
56
46
233
189
194
80
59
198
222
139
7
4
255
46
27
5
0
0
0
40
34
0
134
254
246
85
232
51
36
143
165
15
192
244
2
34
58
18
173
29
111
13
64
18
148
52
80
202
24
12
45
233
12
76
80
59
145
246
139
7
4
255
46
27
5
0
0
0
40
34
0
134
255
220
82
232
51
194
152
165
15
8
245
2
34
24
96
173
29
136
64
63
18
252
25
80
202
84
106
45
233
138
136
80
59
255
55
139
7
4
255
46
27
5
0
0
0
40
34
0
134
0
37
93
232
51
168
181
165
15
16
216
2
34
146
1
174
29
21
69
61
18
206
198
79
202
176
83
46
233
0
29
81
59
122
106
137
7
4
255
46
27
5
0
0
0
40
34
0
134
1
8
33
232
51
89
13
166
15
111
11
3
34
61
48
174
29
236
55
61
18
37
220
79
202
177
7
46
233
231
9
81
59
153
26
137
7
4
255
46
27
5
0
0
0
40
34
0
134
2
234
31
232
51
207
226
165
15
183
32
3
34
71
95
174
29
105
5
61
18
252
228
79
202
81
66
46
233
168
36
81
59
138
249
136
7
4
255
46
27
5
0
0
0
40
34
0
134
3
122
148
232
51
242
197
164
15
226
241
2
34
14
42
173
29
159
12
64
18
121
65
80
202
68
185
45
233
93
129
80
59
51
95
140
7
4
255
46
27
5
0
0
0
40
34
0
134
4
255
155
232
51
60
126
164
15
101
7
3
34
48
245
173
29
248
78
62
18
75
26
80
202
141
210
46
233
95
29
81
59
125
231
138
7
4
255
46
27
5
0
0
0
40
34
0
134
5
109
11
232
51
215
183
165
15
197
83
3
34
253
38
174
29
167
47
62
18
49
43
80
202
123
202
45
233
73
212
80
59
70
7
138
7
4
255
46
27
5
0
0
0
40
34
0
134
6
242
225
231
51
39
105
166
15
124
65
3
34
39
100
174
29
246
34
61
18
184
241
79
202
178
187
45
233
34
248
80
59
89
192
136
7
4
255
46
27
5
0
0
0
40
34
0
134
7
163
255
231
51
110
127
165
15
177
127
3
34
34
196
174
29
135
32
61
18
246
37
80
202
23
124
46
233
136
54
81
59
195
27
137
7
4
255
46
27
5
0
0
0
40
34
0
134
8
194
60
232
51
121
163
164
15
155
135
3
34
183
214
174
29
165
80
61
18
147
64
80
202
73
31
47
233
193
97
81
59
174
181
137
7
4
255
46
27
5
0
0
0
40
34
0
134
9
20
166
231
51
51
157
165
15
175
250
3
34
175
63
175
29
226
31
61
18
11
106
80
202
15
81
46
233
227
46
81
59
180
213
136
7
4
255
46
27
5
0
0
0
40
34
0
134
10
59
175
231
51
35
33
166
15
5
176
3
34
7
251
174
29
143
220
60
18
54
45
80
202
147
12
46
233
200
32
81
59
78
117
136
7
4
255
46
27
5
0
0
0
40
34
0
134
11
50
108
231
51
148
215
165
15
37
56
4
34
76
148
175
29
63
213
60
18
123
127
80
202
123
59
46
233
111
54
81
59
234
88
136
7
4
255
46
27
5
0
0
0
40
34
0
134
12
138
138
230
51
58
209
167
15
206
167
4
34
168
57
176
29
34
167
59
18
74
116
80
202
92
17
45
233
230
13
81
59
158
16
134
7
4
255
46
27
5
0
0
0
40
34
0
134
13
29
182
230
51
187
220
166
15
206
213
4
34
23
226
176
29
91
192
58
18
21
131
80
202
160
79
46
233
85
149
81
59
29
170
133
7
4
255
46
27
5
0
0
0
40
34
0
134
14
227
182
230
51
25
183
166
15
239
229
4
34
113
50
177
29
177
39
58
18
176
123
80
202
241
185
46
233
44
206
81
59
87
44
133
7
4
255
46
27
5
0
0
0
40
34
0
134
15
3
197
230
51
14
93
166
15
212
249
4
34
44
66
177
29
0
83
58
18
21
147
80
202
130
238
46
233
161
216
81
59
105
121
133
7
4
255
46
27
5
0
0
0
40
34
0
134
16
233
100
230
51
1
137
167
15
111
2
5
34
15
247
176
29
36
199
58
18
249
144
80
202
51
178
45
233
203
101
81
59
111
67
133
7
4
255
46
27
5
0
0
0
40
34
0
134
17
149
168
229
51
127
227
169
15
107
12
5
34
137
40
176
29
75
45
60
18
101
152
80
202
103
249
42
233
167
88
80
59
64
75
133
7
4
255
46
27
5
0
0
0
40
34
0
134
18
28
77
230
51
210
15
168
15
176
232
4
34
10
210
175
29
109
77
61
18
117
202
80
202
248
254
43
233
135
123
80
59
226
81
135
7
4
255
46
27
5
0
0
0
40
34
0
134
19
224
142
230
51
73
25
167
15
204
245
4
34
235
197
175
29
72
228
61
18
2
247
80
202
190
132
44
233
52
142
80
59
74
84
136
7
4
255
46
27
5
0
0
0
40
34
0
134
20
233
131
230
51
70
141
167
15
42
209
4
34
180
157
175
29
189
194
61
18
95
213
80
202
126
55
44
233
233
121
80
59
254
9
136
7
4
255
46
27
5
0
0
0
40
34
0
134
21
19
175
230
51
10
191
167
15
107
120
4
34
50
56
175
29
254
202
61
18
10
160
80
202
157
21
44
233
62
106
80
59
188
30
136
7
4
255
46
27
5
0
0
0
40
34
0
134
22
113
242
229
51
239
14
169
15
153
253
4
34
187
239
175
29
123
225
60
18
49
182
80
202
113
87
43
233
97
89
80
59
233
98
134
7
4
255
46
27
5
0
0
0
40
34
0
134
23
69
24
230
51
53
206
168
15
170
225
4
34
201
132
175
29
83
194
61
18
116
199
80
202
102
34
43
233
82
37
80
59
54
92
135
7
4
255
46
27
5
0
0
0
40
34
0
134
24
195
138
230
51
69
158
167
15
233
190
4
34
183
181
174
29
157
230
63
18
74
15
81
202
101
25
43
233
230
204
79
59
27
249
137
7
4
255
46
27
5
0
0
0
40
34
0
134
25
107
203
229
51
183
197
169
15
255
228
4
34
79
244
174
29
35
238
62
18
112
221
80
202
219
183
41
233
194
135
79
59
250
233
135
7
4
255
46
27
5
0
0
0
40
34
0
134
26
234
36
230
51
120
234
168
15
98
193
4
34
112
80
174
29
222
130
64
18
108
12
81
202
72
174
41
233
30
69
79
59
123
217
137
7
4
255
46
27
5
0
0
0
40
34
0
134
27
217
240
229
51
130
32
169
15
242
247
4
34
62
25
175
29
124
249
62
18
184
245
80
202
240
60
42
233
228
175
79
59
113
65
136
7
4
255
46
27
5
0
0
0
40
34
0
134
28
128
232
229
51
244
173
168
15
101
57
5
34
254
87
175
29
110
45
63
18
20
42
81
202
145
123
42
233
38
190
79
59
246
142
136
7
4
255
46
27
5
0
0
0
40
34
0
134
29
20
233
229
51
248
180
168
15
74
53
5
34
116
45
175
29
124
142
63
18
140
51
81
202
148
69
42
233
112
158
79
59
252
228
136
7
4
255
46
27
5
0
0
0
40
34
0
134
30
182
45
229
51
119
143
170
15
166
120
5
34
225
35
176
29
155
33
61
18
210
232
80
202
32
220
41
233
28
224
79
59
182
159
133
7
4
255
46
27
5
0
0
0
40
34
0
134
31
70
125
229
51
222
250
169
15
187
67
5
34
88
190
174
29
157
102
64
18
148
63
81
202
41
192
40
233
226
5
79
59
137
249
136
7
4
255
46
27
5
0
0
0
40
34
0
134
32
75
169
229
51
205
173
169
15
10
36
5
34
255
175
174
29
9
81
64
18
81
48
81
202
146
17
41
233
223
32
79
59
217
27
137
7
4
255
46
27
5
0
0
0
40
34
0
134
33
49
160
229
51
229
97
169
15
225
84
5
34
159
227
174
29
24
104
64
18
178
84
81
202
245
63
41
233
210
45
79
59
133
66
137
7
4
255
46
27
5
0
0
0
40
34
0
134
34
60
166
229
51
64
119
169
15
214
65
5
34
176
3
175
29
95
218
63
18
63
54
81
202
94
119
41
233
203
83
79
59
145
191
136
7
4
255
46
27
5
0
0
0
40
34
0
134
35
160
86
229
51
70
60
170
15
146
96
5
34
202
111
175
29
253
208
62
18
208
23
81
202
246
78
41
233
106
113
79
59
214
91
135
7
4
255
46
27
5
0
0
0
40
34
0
134
36
241
47
230
51
33
94
168
15
39
241
4
34
93
5
175
29
49
93
63
18
160
12
81
202
135
178
42
233
136
196
79
59
78
3
137
7
4
255
46
27
5
0
0
0
40
34
0
134
37
240
116
230
51
59
153
167
15
131
226
4
34
151
190
174
29
238
48
64
18
120
45
81
202
89
243
42
233
92
183
79
59
81
47
138
7
4
255
46
27
5
0
0
0
40
34
0
134
38
194
139
229
51
42
239
169
15
4
51
5
34
204
20
175
29
54
93
63
18
41
21
81
202
112
81
41
233
163
90
79
59
186
22
136
7
4
255
46
27
5
0
0
0
40
34
0
134
39
91
78
229
51
142
179
170
15
62
54
5
34
128
239
174
29
188
131
63
18
162
13
81
202
118
149
40
233
232
26
79
59
127
210
135
7
4
255
46
27
5
0
0
0
40
34
0
134
40
247
173
230
51
246
196
166
15
44
237
4
34
150
24
175
29
76
172
63
18
36
50
81
202
0
234
43
233
48
24
80
59
117
32
138
7
4
255
46
27
5
0
0
0
40
34
0
134
41
158
108
231
51
211
94
165
15
15
111
4
34
99
129
174
29
165
92
64
18
123
26
81
202
217
214
44
233
107
64
80
59
232
176
139
7
4
255
46
27
5
0
0
0
40
34
0
134
42
21
205
230
51
135
199
167
15
187
70
4
34
41
130
173
29
129
180
65
18
77
2
81
202
97
32
42
233
219
51
79
59
176
186
139
7
4
255
46
27
5
0
0
0
40
34
0
134
43
141
120
229
51
196
55
171
15
250
184
4
34
248
6
175
29
59
201
61
18
58
132
80
202
218
19
41
233
26
128
79
59
165
52
134
7
4
255
46
27
5
0
0
0
40
34
0
134
44
141
22
231
51
209
24
166
15
203
156
4
34
79
110
174
29
135
201
64
18
248
52
81
202
101
250
43
233
214
237
79
59
19
159
139
7
4
255
46
27
5
0
0
0
40
34
0
134
45
185
70
233
51
16
116
160
15
46
222
3
34
120
174
173
29
111
170
66
18
115
110
81
202
12
251
47
233
183
214
80
59
201
145
144
7
4
255
46
27
5
0
0
0
40
34
0
134
46
16
15
231
51
180
227
166
15
230
74
4
34
182
187
174
29
254
222
62
18
1
185
80
202
252
77
44
233
61
79
80
59
26
158
137
7
4
255
46
27
5
0
0
0
40
34
0
134
47
169
104
229
51
57
191
171
15
213
146
4
34
201
141
173
29
226
7
65
18
8
206
80
202
167
5
39
233
190
92
78
59
52
239
136
7
4
255
46
27
5
0
0
0
40
34
0
134
48
106
129
230
51
11
58
168
15
121
133
4
34
135
40
175
29
207
236
61
18
222
162
80
202
111
153
43
233
96
63
80
59
237
247
135
7
4
255
46
27
5
0
0
0
40
34
0
134
49
196
130
231
51
106
80
165
15
227
83
4
34
8
201
175
29
234
196
60
18
22
151
80
202
105
179
46
233
28
95
81
59
231
131
136
7
4
255
46
27
5
0
0
0
40
34
0
134
50
203
177
231
51
128
109
165
15
192
254
3
34
76
250
173
29
207
136
64
18
207
222
80
202
130
196
44
233
245
46
80
59
172
2
140
7
4
255
46
27
5
0
0
0
40
34
0
134
51
167
222
230
51
240
247
166
15
113
139
4
34
182
24
175
29
231
147
62
18
232
210
80
202
219
88
44
233
254
96
80
59
71
51
137
7
4
255
46
27
5
0
0
0
40
34
0
134
52
0
69
229
51
32
222
170
15
234
48
5
34
26
156
176
29
200
13
59
18
170
118
80
202
88
173
42
233
214
110
80
59
49
181
131
7
4
255
46
27
5
0
0
0
40
34
0
134
53
117
169
228
51
60
143
172
15
169
86
5
34
166
71
176
29
34
187
59
18
214
130
80
202
29
222
40
233
30
199
79
59
52
97
131
7
4
255
46
27
5
0
0
0
40
34
0
134
54
123
44
230
51
116
219
168
15
187
188
4
34
164
0
175
29
213
177
62
18
198
207
80
202
139
164
42
233
40
216
79
59
98
62
136
7
4
255
46
27
5
0
0
0
40
34
0
134
55
226
101
231
51
6
95
165
15
57
121
4
34
194
121
175
29
92
242
61
18
173
209
80
202
157
10
46
233
143
254
80
59
192
124
137
7
4
255
46
27
5
0
0
0
40
34
0
134
56
249
79
231
51
28
153
166
15
40
10
4
34
216
237
174
29
45
200
61
18
251
117
80
202
206
34
45
233
171
184
80
59
211
228
136
7
4
255
46
27
5
0
0
0
40
34
0
134
57
236
65
230
51
133
146
169
15
199
71
4
34
1
95
175
29
1
68
60
18
170
48
80
202
231
79
43
233
14
103
80
59
61
224
133
7
4
255
46
27
5
0
0
0
40
34
0
134
58
98
152
230
51
117
76
168
15
244
89
4
34
103
191
174
29
176
130
62
18
172
155
80
202
248
68
43
233
106
12
80
59
50
137
136
7
4
255
46
27
5
0
0
0
40
34
0
134
59
178
81
231
51
184
134
166
15
3
16
4
34
58
196
173
29
135
227
64
18
196
223
80
202
181
163
43
233
216
200
79
59
166
187
139
7
4
255
46
27
5
0
0
0
40
34
0
134
60
211
59
231
51
154
89
167
15
87
208
3
34
148
121
173
29
75
178
64
18
194
165
80
202
245
16
43
233
88
160
79
59
243
61
139
7
4
255
46
27
5
0
0
0
40
34
0
134
61
56
109
231
51
135
39
167
15
1
156
3
34
211
60
173
29
154
212
64
18
215
143
80
202
73
50
43
233
255
162
79
59
240
141
139
7
4
255
46
27
5
0
0
0
40
34
0
134
62
124
94
231
51
177
247
166
15
132
200
3
34
231
144
173
29
38
130
64
18
72
162
80
202
14
126
43
233
0
201
79
59
124
72
139
7
4
255
46
27
5
0
0
0
40
34
0
134
63
161
156
231
51
126
163
166
15
103
144
3
34
226
118
173
29
186
75
64
18
103
129
80
202
145
233
43
233
245
239
79
59
123
91
139
7
4
255
46
27
5
0
0
0
40
34
0
134
64
138
246
231
51
85
211
165
15
254
102
3
34
77
235
171
29
85
39
68
18
161
246
80
202
200
179
42
233
219
246
78
59
88
87
143
7
4
255
46
27
5
0
0
0
40
34
0
134
65
49
90
231
51
53
185
167
15
1
118
3
34
183
248
171
29
131
134
67
18
85
199
80
202
215
97
41
233
41
168
78
59
193
195
141
7
4
255
46
27
5
0
0
0
40
34
0
134
66
49
85
231
51
74
74
167
15
183
176
3
34
210
134
172
29
30
217
66
18
225
218
80
202
17
15
42
233
215
250
78
59
95
70
141
7
4
255
46
27
5
0
0
0
40
34
0
134
67
19
243
230
51
51
139
168
15
179
178
3
34
95
218
172
29
190
151
65
18
197
155
80
202
173
156
41
233
15
9
79
59
133
124
139
7
4
255
46
27
5
0
0
0
40
34
0
134
68
240
157
230
51
44
106
169
15
245
205
3
34
194
222
172
29
99
137
65
18
79
153
80
202
229
224
40
233
155
210
78
59
33
240
138
7
4
255
46
27
5
0
0
0
40
34
0
134
69
207
15
231
51
153
122
167
15
79
4
4
34
57
111
173
29
136
77
65
18
212
212
80
202
117
159
42
233
218
103
79
59
134
162
139
7
4
255
46
27
5
0
0
0
40
34
0
134
70
214
130
231
51
178
147
166
15
13
191
3
34
22
213
172
29
206
114
66
18
90
227
80
202
149
220
42
233
132
74
79
59
241
65
141
7
4
255
46
27
5
0
0
0
40
34
0
134
71
234
174
231
51
177
109
166
15
71
141
3
34
59
96
172
29
156
41
67
18
242
224
80
202
235
168
42
233
66
28
79
59
249
16
142
7
4
255
46
27
5
0
0
0
40
34
0
134
72
88
250
230
51
140
152
167
15
74
23
4
34
110
156
173
29
222
0
65
18
190
211
80
202
104
169
42
233
140
119
79
59
72
69
139
7
4
255
46
27
5
0
0
0
40
34
0
134
73
135
118
230
51
142
189
168
15
141
89
4
34
156
54
173
29
46
87
66
18
221
15
81
202
127
249
40
233
211
192
78
59
81
198
139
7
4
255
46
27
5
0
0
0
40
34
0
134
74
255
131
230
51
107
251
168
15
133
40
4
34
11
26
172
29
45
161
68
18
237
57
81
202
109
166
39
233
9
252
77
59
81
206
141
7
4
255
46
27
5
0
0
0
40
34
0
134
75
207
39
231
51
108
94
167
15
172
236
3
34
88
102
172
29
157
199
67
18
18
26
81
202
196
125
41
233
20
172
78
59
114
249
141
7
4
255
46
27
5
0
0
0
40
34
0
134
76
197
221
231
51
34
201
165
15
127
145
3
34
192
45
172
29
104
240
67
18
171
8
81
202
207
209
42
233
119
10
79
59
54
24
143
7
4
255
46
27
5
0
0
0
40
34
0
134
77
235
209
230
51
156
152
168
15
36
223
3
34
200
255
171
29
32
66
68
18
14
11
81
202
78
53
40
233
106
51
78
59
181
203
141
7
4
255
46
27
5
0
0
0
40
34
0
134
78
39
32
230
51
186
122
170
15
89
16
4
34
202
221
170
29
237
17
71
18
205
95
81
202
5
41
37
233
73
214
76
59
36
72
143
7
4
255
46
27
5
0
0
0
40
34
0
134
79
191
242
229
51
98
247
170
15
53
28
4
34
196
30
171
29
137
94
70
18
163
70
81
202
67
22
37
233
163
236
76
59
2
96
142
7
4
255
46
27
5
0
0
0
40
34
0
134
80
66
223
230
51
73
109
168
15
179
222
3
34
63
221
170
29
240
65
71
18
215
111
81
202
87
218
38
233
67
82
77
59
91
153
144
7
4
255
46
27
5
0
0
0
40
34
0
134
81
65
213
230
51
150
193
168
15
36
199
3
34
76
46
171
29
115
19
70
18
170
53
81
202
228
44
39
233
56
153
77
59
73
102
143
7
4
255
46
27
5
0
0
0
40
34
0
134
82
153
141
230
51
57
12
170
15
67
156
3
34
189
163
171
29
106
254
67
18
39
193
80
202
147
34
39
233
31
230
77
59
138
235
140
7
4
255
46
27
5
0
0
0
40
34
0
134
83
247
64
230
51
99
147
170
15
242
210
3
34
237
91
171
29
100
29
69
18
29
251
80
202
66
23
38
233
5
106
77
59
78
145
141
7
4
255
46
27
5
0
0
0
40
34
0
134
84
193
84
231
51
244
225
167
15
141
107
3
34
110
162
170
29
52
213
70
18
80
42
81
202
225
152
39
233
144
152
77
59
181
177
144
7
4
255
46
27
5
0
0
0
40
34
0
134
85
93
19
231
51
234
157
168
15
203
120
3
34
226
187
170
29
79
118
70
18
21
24
81
202
103
37
39
233
45
132
77
59
185
244
143
7
4
255
46
27
5
0
0
0
40
34
0
134
86
239
39
231
51
119
3
168
15
130
160
3
34
13
98
171
29
118
102
69
18
96
23
81
202
236
43
40
233
184
0
78
59
18
61
143
7
4
255
46
27
5
0
0
0
40
34
0
134
87
236
235
230
51
152
216
168
15
251
153
3
34
156
192
171
29
132
22
68
18
80
217
80
202
97
30
40
233
240
47
78
59
143
161
141
7
4
255
46
27
5
0
0
0
40
34
0
134
88
155
80
230
51
228
244
169
15
16
4
4
34
222
58
172
29
202
148
67
18
192
240
80
202
80
92
39
233
208
12
78
59
79
106
140
7
4
255
46
27
5
0
0
0
40
34
0
134
89
136
206
229
51
69
4
171
15
136
77
4
34
89
187
172
29
215
175
66
18
226
233
80
202
184
219
38
233
160
11
78
59
66
238
138
7
4
255
46
27
5
0
0
0
40
34
0
134
90
132
97
230
51
241
138
169
15
9
27
4
34
177
249
172
29
69
7
66
18
4
211
80
202
161
122
40
233
48
163
78
59
50
47
139
7
4
255
46
27
5
0
0
0
40
34
0
134
91
242
145
230
51
128
3
169
15
128
15
4
34
12
101
173
29
201
255
64
18
195
180
80
202
42
116
41
233
15
24
79
59
222
139
138
7
4
255
46
27
5
0
0
0
40
34
0
134
92
89
59
230
51
154
153
169
15
131
78
4
34
62
63
173
29
237
215
65
18
94
233
80
202
71
126
40
233
228
173
78
59
24
230
138
7
4
255
46
27
5
0
0
0
40
34
0
134
93
200
15
230
51
70
56
170
15
239
71
4
34
136
24
173
29
153
244
65
18
181
221
80
202
249
232
39
233
41
123
78
59
208
176
138
7
4
255
46
27
5
0
0
0
40
34
0
134
94
42
2
230
51
15
135
170
15
104
56
4
34
29
55
173
29
150
96
65
18
74
188
80
202
204
241
39
233
232
147
78
59
228
8
138
7
4
255
46
27
5
0
0
0
40
34
0
134
95
3
168
230
51
4
211
168
15
37
4
4
34
164
53
173
29
245
108
65
18
175
191
80
202
185
104
41
233
65
3
79
59
200
12
139
7
4
255
46
27
5
0
0
0
40
34
0
134
96
245
40
231
51
207
119
167
15
60
223
3
34
63
94
173
29
252
22
65
18
226
184
80
202
136
194
42
233
98
121
79
59
231
130
139
7
4
255
46
27
5
0
0
0
40
34
0
134
97
167
34
231
51
237
81
167
15
70
250
3
34
223
240
172
29
170
136
66
18
38
250
80
202
20
38
42
233
148
17
79
59
58
217
140
7
4
255
46
27
5
0
0
0
40
34
0
134
98
39
19
231
51
252
123
167
15
144
254
3
34
174
198
172
29
96
243
66
18
33
7
81
202
6
204
41
233
159
229
78
59
42
34
141
7
4
255
46
27
5
0
0
0
40
34
0
134
99
129
6
231
51
95
41
167
15
232
55
4
34
75
221
172
29
244
110
67
18
168
61
81
202
160
204
41
233
98
213
78
59
140
163
141
7
4
255
46
27
5
0
0
0
40
34
0
134
100
117
23
231
51
56
20
167
15
199
39
4
34
198
210
172
29
46
102
67
18
219
52
81
202
123
229
41
233
171
221
78
59
166
173
141
7
4
255
46
27
5
0
0
0
40
34
0
134
101
81
176
231
51
107
108
165
15
124
1
4
34
237
90
172
29
167
199
68
18
228
106
81
202
58
165
42
233
160
224
78
59
192
217
143
7
4
255
46
27
5
0
0
0
40
34
0
134
102
188
153
231
51
239
170
165
15
45
7
4
34
3
132
172
29
208
86
68
18
52
91
81
202
77
167
42
233
226
242
78
59
194
80
143
7
4
255
46
27
5
0
0
0
40
34
0
134
103
32
16
232
51
199
160
164
15
242
204
3
34
185
175
171
29
253
60
70
18
85
139
81
202
138
160
42
233
83
163
78
59
38
172
145
7
4
255
46
27
5
0
0
0
40
34
0
134
104
210
217
232
51
100
131
162
15
15
146
3
34
202
105
171
29
41
14
71
18
229
171
81
202
61
16
44
233
159
241
78
59
120
155
147
7
4
255
46
27
5
0
0
0
40
34
0
134
105
18
208
231
51
204
189
165
15
152
171
3
34
68
37
172
29
108
80
68
18
168
36
81
202
174
167
42
233
224
239
78
59
129
105
143
7
4
255
46
27
5
0
0
0
40
34
0
134
106
236
220
231
51
65
241
165
15
82
128
3
34
219
199
171
29
51
189
68
18
9
22
81
202
124
75
42
233
205
192
78
59
95
196
143
7
4
255
46
27
5
0
0
0
40
34
0
134
107
16
237
232
51
41
31
163
15
22
45
3
34
139
137
171
29
235
118
69
18
206
50
81
202
68
101
44
233
10
70
79
59
175
6
146
7
4
255
46
27
5
0
0
0
40
34
0
134
108
240
166
232
51
171
23
164
15
217
37
3
34
219
103
171
29
199
101
69
18
91
26
81
202
5
154
43
233
203
9
79
59
201
121
145
7
4
255
46
27
5
0
0
0
40
34
0
134
109
100
239
231
51
123
251
165
15
108
95
3
34
7
16
172
29
220
165
67
18
225
222
80
202
68
211
42
233
35
20
79
59
180
208
142
7
4
255
46
27
5
0
0
0
40
34
0
134
110
69
127
232
51
117
47
164
15
117
87
3
34
7
248
171
29
94
108
68
18
40
21
81
202
47
251
43
233
90
80
79
59
233
117
144
7
4
255
46
27
5
0
0
0
40
34
0
134
111
186
52
233
51
22
0
162
15
176
67
3
34
10
70
171
29
143
197
70
18
105
127
81
202
122
176
44
233
157
42
79
59
38
192
147
7
4
255
46
27
5
0
0
0
40
34
0
134
112
221
165
232
51
250
172
163
15
150
88
3
34
200
195
171
29
224
35
69
18
183
54
81
202
254
14
44
233
63
58
79
59
7
95
145
7
4
255
46
27
5
0
0
0
40
34
0
134
113
167
95
232
51
34
23
164
15
230
146
3
34
120
55
172
29
150
111
68
18
80
57
81
202
192
5
44
233
198
85
79
59
69
107
144
7
4
255
46
27
5
0
0
0
40
34
0
134
114
91
248
232
51
116
38
162
15
42
142
3
34
230
151
171
29
207
171
70
18
229
163
81
202
158
145
44
233
109
40
79
59
62
116
147
7
4
255
46
27
5
0
0
0
40
34
0
134
115
62
216
231
51
254
123
165
15
104
189
3
34
38
184
171
29
60
178
69
18
192
96
81
202
114
44
42
233
64
148
78
59
249
195
144
7
4
255
46
27
5
0
0
0
40
34
0
134
116
44
234
231
51
251
236
165
15
16
110
3
34
173
2
171
29
175
141
70
18
40
71
81
202
112
105
41
233
210
50
78
59
15
115
145
7
4
255
46
27
5
0
0
0
40
34
0
134
117
191
30
233
51
156
175
161
15
58
138
3
34
190
25
171
29
208
17
72
18
15
216
81
202
232
68
44
233
109
217
78
59
125
247
148
7
4
255
46
27
5
0
0
0
40
34
0
134
118
198
50
233
51
89
244
161
15
15
76
3
34
21
98
170
29
83
48
73
18
38
212
81
202
201
131
43
233
250
110
78
59
154
242
149
7
4
255
46
27
5
0
0
0
40
34
0
134
119
23
177
232
51
95
19
164
15
85
24
3
34
197
59
170
29
111
78
72
18
8
114
81
202
43
43
42
233
114
37
78
59
253
35
148
7
4
255
46
27
5
0
0
0
40
34
0
134
120
81
177
232
51
27
93
164
15
17
246
2
34
173
185
170
29
17
146
70
18
80
32
81
202
73
207
42
233
244
154
78
59
177
122
146
7
4
255
46
27
5
0
0
0
40
34
0
134
121
188
134
233
51
2
18
162
15
75
190
2
34
192
187
169
29
102
89
73
18
56
134
81
202
141
106
43
233
128
90
78
59
201
70
150
7
4
255
46
27
5
0
0
0
40
34
0
134
122
234
153
233
51
17
194
161
15
190
197
2
34
101
205
169
29
12
91
73
18
137
144
81
202
30
173
43
233
15
111
78
59
88
110
150
7
4
255
46
27
5
0
0
0
40
34
0
134
123
69
151
233
51
11
49
161
15
113
12
3
34
153
196
170
29
143
200
71
18
15
144
81
202
87
232
44
233
93
17
79
59
247
45
149
7
4
255
46
27
5
0
0
0
40
34
0
134
124
148
195
233
51
101
118
160
15
141
30
3
34
115
207
170
29
36
29
72
18
223
178
81
202
69
91
45
233
119
40
79
59
26
211
149
7
4
255
46
27
5
0
0
0
40
34
0
134
125
242
85
233
51
214
204
161
15
135
40
3
34
220
233
170
29
177
125
71
18
41
139
81
202
59
132
44
233
95
255
78
59
67
141
148
7
4
255
46
27
5
0
0
0
40
34
0
134
126
91
52
233
51
37
223
161
15
100
83
3
34
27
149
171
29
157
45
70
18
98
119
81
202
106
22
45
233
30
98
79
59
194
64
147
7
4
255
46
27
5
0
0
0
40
34
0
134
127
7
230
233
51
114
31
160
15
238
17
3
34
82
237
170
29
124
203
71
18
144
167
81
202
112
208
45
233
140
88
79
59
183
187
149
7
4
255
46
27
5
0
0
0
40
34
0
134
128
110
6
234
51
23
207
159
15
102
5
3
34
215
55
171
29
192
3
71
18
187
140
81
202
4
123
46
233
71
171
79
59
3
54
149
7
4
255
46
27
5
0
0
0
40
34
0
134
129
169
133
233
51
46
152
161
15
235
247
2
34
18
79
171
29
37
6
70
18
60
67
81
202
75
116
45
233
252
128
79
59
246
105
147
7
4
255
46
27
5
0
0
0
40
34
0
134
130
138
121
233
51
5
155
161
15
28
9
3
34
237
116
171
29
254
208
69
18
17
70
81
202
242
137
45
233
155
144
79
59
211
48
147
7
4
255
46
27
5
0
0
0
40
34
0
134
131
187
8
234
51
56
187
159
15
255
10
3
34
64
114
171
29
201
129
70
18
199
128
81
202
59
204
46
233
141
216
79
59
51
200
148
7
4
255
46
27
5
0
0
0
40
34
0
134
132
169
159
233
51
112
214
160
15
65
41
3
34
68
206
171
29
169
130
69
18
202
92
81
202
213
84
46
233
138
220
79
59
126
65
147
7
4
255
46
27
5
0
0
0
40
34
0
134
133
118
230
232
51
35
185
162
15
17
102
3
34
5
68
172
29
121
78
68
18
254
52
81
202
167
72
45
233
64
188
79
59
24
22
145
7
4
255
46
27
5
0
0
0
40
34
0
134
134
226
200
232
51
66
155
162
15
245
160
3
34
252
253
172
29
176
19
67
18
174
48
81
202
41
247
45
233
16
37
80
59
194
238
143
7
4
255
46
27
5
0
0
0
40
34
0
134
135
94
146
232
51
53
203
162
15
25
222
3
34
245
225
172
29
107
240
67
18
74
108
81
202
189
86
45
233
116
212
79
59
216
130
144
7
4
255
46
27
5
0
0
0
40
34
0
134
136
38
196
232
51
174
58
162
15
145
212
3
34
170
250
172
29
36
200
67
18
61
108
81
202
21
232
45
233
245
6
80
59
92
173
144
7
4
255
46
27
5
0
0
0
40
34
0
134
137
224
184
232
51
16
253
161
15
24
2
4
34
168
137
173
29
249
227
66
18
170
109
81
202
100
136
46
233
116
93
80
59
186
234
143
7
4
255
46
27
5
0
0
0
40
34
0
134
138
205
149
232
51
93
155
162
15
218
238
3
34
75
91
173
29
130
242
66
18
251
88
81
202
82
252
45
233
63
47
80
59
110
174
143
7
4
255
46
27
5
0
0
0
40
34
0
134
139
18
211
232
51
240
67
162
15
138
185
3
34
24
85
173
29
68
145
66
18
121
52
81
202
160
127
46
233
59
100
80
59
23
155
143
7
4
255
46
27
5
0
0
0
40
34
0
134
140
157
227
232
51
180
17
162
15
95
183
3
34
122
34
173
29
61
32
67
18
33
73
81
202
113
99
46
233
115
69
80
59
111
55
144
7
4
255
46
27
5
0
0
0
40
34
0
134
141
246
58
233
51
85
31
161
15
111
161
3
34
59
178
172
29
36
92
68
18
145
118
81
202
51
152
46
233
11
36
80
59
100
220
145
7
4
255
46
27
5
0
0
0
40
34
0
134
142
235
67
233
51
17
11
161
15
22
157
3
34
83
154
172
29
140
149
68
18
226
124
81
202
120
141
46
233
180
23
80
59
190
28
146
7
4
255
46
27
5
0
0
0
40
34
0
134
143
126
90
233
51
198
88
160
15
145
204
3
34
122
189
172
29
251
246
68
18
120
177
81
202
135
238
46
233
174
40
80
59
77
188
146
7
4
255
46
27
5
0
0
0
40
34
0
134
144
231
95
233
51
147
51
160
15
97
213
3
34
129
15
173
29
50
70
68
18
169
162
81
202
141
101
47
233
235
104
80
59
172
43
146
7
4
255
46
27
5
0
0
0
40
34
0
134
145
237
30
233
51
122
79
160
15
189
43
4
34
188
52
173
29
1
196
68
18
12
226
81
202
29
2
47
233
212
58
80
59
36
105
146
7
4
255
46
27
5
0
0
0
40
34
0
134
146
175
117
233
51
119
99
159
15
190
19
4
34
147
161
172
29
21
83
70
18
137
24
82
202
28
8
47
233
15
254
79
59
247
86
148
7
4
255
46
27
5
0
0
0
40
34
0
134
147
239
80
233
51
140
146
159
15
54
54
4
34
120
22
173
29
173
111
69
18
190
11
82
202
134
76
47
233
184
55
80
59
168
97
147
7
4
255
46
27
5
0
0
0
40
34
0
134
148
181
171
232
51
198
33
161
15
246
122
4
34
126
79
173
29
61
11
69
18
20
9
82
202
200
30
46
233
124
237
79
59
251
25
146
7
4
255
46
27
5
0
0
0
40
34
0
134
149
114
120
232
51
145
175
161
15
3
136
4
34
127
90
173
29
19
225
68
18
210
0
82
202
133
184
45
233
24
213
79
59
183
164
145
7
4
255
46
27
5
0
0
0
40
34
0
134
150
141
139
232
51
121
251
161
15
250
71
4
34
51
152
173
29
140
122
67
18
239
168
81
202
58
52
46
233
129
47
80
59
27
85
144
7
4
255
46
27
5
0
0
0
40
34
0
134
151
150
77
232
51
224
28
162
15
47
151
4
34
60
102
173
29
221
197
68
18
12
254
81
202
75
102
45
233
172
192
79
59
218
76
145
7
4
255
46
27
5
0
0
0
40
34
0
134
152
51
67
232
51
164
187
161
15
184
211
4
34
68
54
174
29
54
109
67
18
202
251
81
202
56
93
46
233
112
68
80
59
163
44
144
7
4
255
46
27
5
0
0
0
40
34
0
134
153
135
96
232
51
67
171
161
15
123
174
4
34
169
58
174
29
73
3
67
18
48
218
81
202
173
165
46
233
92
105
80
59
157
229
143
7
4
255
46
27
5
0
0
0
40
34
0
134
154
12
86
232
51
4
93
161
15
105
226
4
34
242
129
174
29
105
240
66
18
48
251
81
202
147
234
46
233
202
131
80
59
50
230
143
7
4
255
46
27
5
0
0
0
40
34
0
134
155
25
129
232
51
124
178
160
15
22
239
4
34
250
194
174
29
227
163
66
18
26
5
82
202
24
161
47
233
74
200
80
59
159
243
143
7
4
255
46
27
5
0
0
0
40
34
0
134
156
254
72
232
51
182
65
161
15
227
2
5
34
100
173
174
29
33
224
66
18
170
13
82
202
97
5
47
233
0
144
80
59
82
215
143
7
4
255
46
27
5
0
0
0
40
34
0
134
157
22
36
232
51
73
90
161
15
236
47
5
34
37
235
174
29
63
176
66
18
133
31
82
202
188
1
47
233
69
152
80
59
120
139
143
7
4
255
46
27
5
0
0
0
40
34
0
134
158
176
184
231
51
66
26
162
15
145
123
5
34
202
171
175
29
12
69
65
18
133
14
82
202
13
8
47
233
121
213
80
59
44
190
141
7
4
255
46
27
5
0
0
0
40
34
0
134
159
4
208
231
51
254
135
161
15
44
155
5
34
14
163
176
29
49
73
63
18
155
234
81
202
234
126
48
233
71
152
81
59
102
48
140
7
4
255
46
27
5
0
0
0
40
34
0
134
160
57
193
231
51
66
254
161
15
105
123
5
34
90
134
176
29
238
21
63
18
78
201
81
202
229
55
48
233
226
136
81
59
193
210
139
7
4
255
46
27
5
0
0
0
40
34
0
134
161
43
237
231
51
83
1
161
15
147
172
5
34
9
169
176
29
133
150
63
18
50
8
82
202
7
201
48
233
250
163
81
59
112
180
140
7
4
255
46
27
5
0
0
0
40
34
0
134
162
214
206
231
51
193
88
161
15
178
178
5
34
55
236
176
29
92
218
62
18
99
237
81
202
110
219
48
233
211
198
81
59
56
218
139
7
4
255
46
27
5
0
0
0
40
34
0
134
163
255
255
231
51
155
190
160
15
128
174
5
34
47
149
176
29
46
230
63
18
76
24
82
202
6
218
48
233
12
157
81
59
54
30
141
7
4
255
46
27
5
0
0
0
40
34
0
134
164
91
187
231
51
67
20
161
15
218
239
5
34
183
171
176
29
254
61
64
18
159
66
82
202
50
91
48
233
117
107
81
59
159
36
141
7
4
255
46
27
5
0
0
0
40
34
0
134
165
10
106
231
51
233
96
161
15
183
72
6
34
231
232
176
29
160
115
64
18
178
118
82
202
199
241
47
233
196
70
81
59
109
6
141
7
4
255
46
27
5
0
0
0
40
34
0
134
166
101
125
231
51
208
29
161
15
6
74
6
34
170
53
177
29
131
198
63
18
74
102
82
202
182
129
48
233
182
141
81
59
239
139
140
7
4
255
46
27
5
0
0
0
40
34
0
134
167
59
137
231
51
124
164
160
15
174
111
6
34
208
102
177
29
128
213
63
18
148
134
82
202
166
220
48
233
16
169
81
59
193
199
140
7
4
255
46
27
5
0
0
0
40
34
0
134
168
26
135
231
51
150
170
160
15
28
112
6
34
222
1
177
29
16
219
64
18
176
167
82
202
108
84
48
233
248
86
81
59
24
177
141
7
4
255
46
27
5
0
0
0
40
34
0
134
169
59
211
231
51
188
227
159
15
78
87
6
34
246
19
177
29
104
173
64
18
42
162
82
202
52
25
49
233
104
153
81
59
156
249
141
7
4
255
46
27
5
0
0
0
40
34
0
134
170
80
144
231
51
176
0
160
15
22
176
6
34
172
43
177
29
155
84
65
18
35
232
82
202
202
159
48
233
83
94
81
59
232
90
142
7
4
255
46
27
5
0
0
0
40
34
0
134
171
111
163
231
51
227
3
160
15
123
145
6
34
85
219
176
29
30
210
65
18
97
230
82
202
175
98
48
233
221
54
81
59
72
216
142
7
4
255
46
27
5
0
0
0
40
34
0
134
172
255
102
231
51
223
84
160
15
124
200
6
34
235
16
177
29
246
190
65
18
128
253
82
202
232
30
48
233
110
39
81
59
217
132
142
7
4
255
46
27
5
0
0
0
40
34
0
134
173
97
91
231
51
195
34
161
15
157
123
6
34
79
5
177
29
233
199
64
18
18
163
82
202
105
245
47
233
52
61
81
59
127
92
141
7
4
255
46
27
5
0
0
0
40
34
0
134
174
166
74
231
51
111
137
161
15
252
101
6
34
241
216
176
29
244
221
64
18
6
146
82
202
150
149
47
233
94
27
81
59
205
68
141
7
4
255
46
27
5
0
0
0
40
34
0
134
175
183
83
231
51
241
135
161
15
210
88
6
34
39
210
176
29
183
204
64
18
106
136
82
202
104
161
47
233
16
33
81
59
194
59
141
7
4
255
46
27
5
0
0
0
40
34
0
134
176
210
18
231
51
20
192
161
15
13
162
6
34
154
222
176
29
11
94
65
18
182
192
82
202
239
29
47
233
142
229
80
59
7
130
141
7
4
255
46
27
5
0
0
0
40
34
0
134
177
227
130
230
51
210
58
163
15
141
207
6
34
142
13
177
29
180
220
64
18
180
174
82
202
169
19
46
233
132
169
80
59
232
52
140
7
4
255
46
27
5
0
0
0
40
34
0
134
178
124
172
230
51
181
129
162
15
41
229
6
34
105
1
177
29
180
117
65
18
5
220
82
202
123
98
46
233
59
171
80
59
177
21
141
7
4
255
46
27
5
0
0
0
40
34
0
134
179
32
71
231
51
213
215
160
15
238
188
6
34
77
228
176
29
9
231
65
18
118
242
82
202
92
156
47
233
148
248
80
59
101
106
142
7
4
255
46
27
5
0
0
0
40
34
0
134
180
223
8
231
51
222
66
161
15
192
234
6
34
144
188
176
29
224
164
66
18
13
29
83
202
254
218
46
233
243
161
80
59
164
202
142
7
4
255
46
27
5
0
0
0
40
34
0
134
181
140
124
231
51
61
44
160
15
69
186
6
34
175
76
176
29
222
164
67
18
67
54
83
202
143
80
47
233
139
156
80
59
213
87
144
7
4
255
46
27
5
0
0
0
40
34
0
134
182
74
107
231
51
133
118
159
15
6
40
7
34
29
223
176
29
141
141
67
18
85
127
83
202
224
231
47
233
149
211
80
59
141
112
144
7
4
255
46
27
5
0
0
0
40
34
0
134
183
184
104
231
51
58
109
159
15
54
48
7
34
220
253
176
29
203
86
67
18
181
125
83
202
12
10
48
233
229
230
80
59
54
64
144
7
4
255
46
27
5
0
0
0
40
34
0
134
184
236
131
231
51
184
51
159
15
32
33
7
34
164
150
176
29
85
78
68
18
217
152
83
202
152
193
47
233
209
169
80
59
155
68
145
7
4
255
46
27
5
0
0
0
40
34
0
134
185
168
16
231
51
156
59
160
15
196
87
7
34
114
245
176
29
72
144
67
18
158
140
83
202
192
54
47
233
212
158
80
59
3
248
143
7
4
255
46
27
5
0
0
0
40
34
0
134
186
7
216
230
51
52
136
160
15
247
138
7
34
130
97
177
29
190
230
66
18
181
142
83
202
143
66
47
233
217
190
80
59
113
32
143
7
4
255
46
27
5
0
0
0
40
34
0
134
187
217
234
230
51
213
68
160
15
47
141
7
34
135
83
177
29
35
40
67
18
59
157
83
202
51
91
47
233
117
188
80
59
133
125
143
7
4
255
46
27
5
0
0
0
40
34
0
134
188
64
140
230
51
115
28
161
15
113
186
7
34
203
233
177
29
72
209
65
18
186
123
83
202
149
71
47
233
50
237
80
59
193
195
141
7
4
255
46
27
5
0
0
0
40
34
0
134
189
80
140
230
51
39
117
161
15
161
145
7
34
37
206
177
29
21
141
65
18
56
85
83
202
177
35
47
233
210
234
80
59
15
106
141
7
4
255
46
27
5
0
0
0
40
34
0
134
190
212
123
230
51
171
195
161
15
177
134
7
34
247
63
177
29
101
198
66
18
38
113
83
202
49
69
46
233
174
117
80
59
188
97
142
7
4
255
46
27
5
0
0
0
40
34
0
134
191
56
117
230
51
43
208
161
15
4
139
7
34
149
249
176
29
168
132
67
18
245
138
83
202
156
218
45
233
205
55
80
59
136
5
143
7
4
255
46
27
5
0
0
0
40
34
0
134
192
31
207
230
51
85
228
160
15
61
110
7
34
139
2
177
29
211
112
67
18
40
137
83
202
183
178
46
233
16
124
80
59
83
122
143
7
4
255
46
27
5
0
0
0
40
34
0
134
193
7
149
230
51
20
136
161
15
160
123
7
34
72
74
177
29
61
162
66
18
142
106
83
202
240
139
46
233
132
144
80
59
188
100
142
7
4
255
46
27
5
0
0
0
40
34
0
134
194
24
182
230
51
63
50
161
15
162
112
7
34
109
84
177
29
180
135
66
18
34
103
83
202
86
228
46
233
78
175
80
59
253
125
142
7
4
255
46
27
5
0
0
0
40
34
0
134
195
125
152
230
51
105
153
161
15
102
110
7
34
51
158
176
29
8
56
68
18
111
149
83
202
228
179
45
233
1
15
80
59
201
208
143
7
4
255
46
27
5
0
0
0
40
34
0
134
196
178
181
230
51
162
126
161
15
39
78
7
34
94
83
176
29
0
173
68
18
219
147
83
202
249
148
45
233
9
242
79
59
173
86
144
7
4
255
46
27
5
0
0
0
40
34
0
134
197
74
31
230
51
175
200
162
15
233
155
7
34
199
155
176
29
188
80
68
18
130
156
83
202
39
157
44
233
116
183
79
59
32
54
143
7
4
255
46
27
5
0
0
0
40
34
0
134
198
229
47
230
51
172
134
162
15
236
160
7
34
58
66
176
29
129
93
69
18
115
198
83
202
108
78
44
233
19
118
79
59
81
73
144
7
4
255
46
27
5
0
0
0
40
34
0
134
199
128
214
229
51
252
46
163
15
234
219
7
34
152
24
176
29
124
46
70
18
146
246
83
202
16
77
43
233
80
9
79
59
91
149
144
7
4
255
46
27
5
0
0
0
40
34
0
134
200
253
226
229
51
69
133
163
15
54
161
7
34
227
93
176
29
49
191
68
18
222
159
83
202
146
195
43
233
182
99
79
59
32
54
143
7
4
255
46
27
5
0
0
0
40
34
0
134
201
70
38
230
51
172
41
163
15
174
100
7
34
30
82
176
29
126
90
68
18
22
119
83
202
62
77
44
233
224
154
79
59
9
37
143
7
4
255
46
27
5
0
0
0
40
34
0
134
202
191
23
230
51
122
80
163
15
4
105
7
34
58
186
176
29
88
74
67
18
15
84
83
202
156
179
44
233
117
228
79
59
194
24
142
7
4
255
46
27
5
0
0
0
40
34
0
134
203
24
84
230
51
230
201
162
15
209
74
7
34
184
217
176
29
104
213
66
18
178
61
83
202
205
101
45
233
240
43
80
59
228
1
142
7
4
255
46
27
5
0
0
0
40
34
0
134
204
45
38
230
51
166
7
163
15
128
116
7
34
22
68
177
29
226
27
66
18
105
57
83
202
186
135
45
233
201
84
80
59
181
39
141
7
4
255
46
27
5
0
0
0
40
34
0
134
205
187
102
230
51
126
29
162
15
152
125
7
34
58
107
177
29
185
30
66
18
11
80
83
202
132
77
46
233
159
145
80
59
129
159
141
7
4
255
46
27
5
0
0
0
40
34
0
134
206
239
112
230
51
19
94
162
15
99
80
7
34
219
219
176
29
191
3
67
18
163
78
83
202
37
170
45
233
25
58
80
59
50
97
142
7
4
255
46
27
5
0
0
0
40
34
0
134
207
227
12
230
51
236
121
163
15
133
102
7
34
48
27
177
29
124
57
66
18
223
44
83
202
15
25
45
233
135
45
80
59
122
13
141
7
4
255
46
27
5
0
0
0
40
34
0
134
208
223
130
230
51
235
8
162
15
37
92
7
34
111
13
177
29
165
191
66
18
230
82
83
202
117
19
46
233
130
101
80
59
125
74
142
7
4
255
46
27
5
0
0
0
40
34
0
134
209
68
121
230
51
12
245
161
15
238
115
7
34
14
159
177
29
221
139
65
18
193
58
83
202
22
187
46
233
125
201
80
59
205
51
141
7
4
255
46
27
5
0
0
0
40
34
0
134
210
119
170
230
51
91
204
161
15
143
59
7
34
121
249
176
29
173
176
66
18
197
66
83
202
143
83
46
233
19
122
80
59
157
106
142
7
4
255
46
27
5
0
0
0
40
34
0
134
211
123
8
231
51
200
86
161
15
48
226
6
34
178
228
176
29
178
30
66
18
155
5
83
202
88
14
47
233
1
198
80
59
172
74
142
7
4
255
46
27
5
0
0
0
40
34
0
134
212
175
206
230
51
238
27
162
15
201
223
6
34
98
79
177
29
99
191
64
18
35
201
82
202
179
21
47
233
43
254
80
59
196
167
140
7
4
255
46
27
5
0
0
0
40
34
0
134
213
8
167
230
51
227
241
162
15
240
185
6
34
139
46
177
29
205
101
64
18
132
152
82
202
202
144
46
233
86
225
80
59
145
248
139
7
4
255
46
27
5
0
0
0
40
34
0
134
214
203
138
230
51
130
209
162
15
228
243
6
34
144
117
177
29
15
84
64
18
197
185
82
202
252
172
46
233
85
239
80
59
204
223
139
7
4
255
46
27
5
0
0
0
40
34
0
134
215
172
35
230
51
77
252
162
15
126
125
7
34
3
134
178
29
30
243
62
18
130
216
82
202
4
37
47
233
160
80
81
59
195
77
138
7
4
255
46
27
5
0
0
0
40
34
0
134
216
241
58
230
51
87
40
163
15
197
69
7
34
159
0
178
29
4
169
63
18
139
204
82
202
85
172
46
233
17
13
81
59
14
244
138
7
4
255
46
27
5
0
0
0
40
34
0
134
217
37
22
230
51
92
207
163
15
35
49
7
34
20
37
178
29
173
217
62
18
59
154
82
202
21
136
46
233
207
32
81
59
7
235
137
7
4
255
46
27
5
0
0
0
40
34
0
134
218
89
1
230
51
169
28
164
15
84
45
7
34
153
104
178
29
128
5
62
18
120
119
82
202
166
176
46
233
176
77
81
59
172
4
137
7
4
255
46
27
5
0
0
0
40
34
0
134
219
107
40
230
51
100
186
163
15
235
30
7
34
20
106
178
29
121
252
61
18
55
117
82
202
111
11
47
233
97
106
81
59
185
53
137
7
4
255
46
27
5
0
0
0
40
34
0
134
220
235
180
229
51
198
10
164
15
28
170
7
34
46
158
179
29
73
54
60
18
94
133
82
202
200
149
47
233
212
224
81
59
233
51
135
7
4
255
46
27
5
0
0
0
40
34
0
134
221
221
118
229
51
22
230
164
15
242
163
7
34
58
217
179
29
90
65
59
18
215
82
82
202
124
85
47
233
73
242
81
59
103
231
133
7
4
255
46
27
5
0
0
0
40
34
0
134
222
143
163
229
51
22
160
164
15
250
127
7
34
142
155
179
29
217
152
59
18
108
78
82
202
216
106
47
233
220
233
81
59
165
106
134
7
4
255
46
27
5
0
0
0
40
34
0
134
223
151
75
229
51
119
171
165
15
50
139
7
34
7
166
179
29
150
64
59
18
63
54
82
202
104
176
46
233
119
190
81
59
94
139
133
7
4
255
46
27
5
0
0
0
40
34
0
134
224
200
112
229
51
126
160
165
15
131
87
7
34
114
96
179
29
64
110
59
18
66
31
82
202
111
170
46
233
82
179
81
59
24
209
133
7
4
255
46
27
5
0
0
0
40
34
0
134
225
94
123
229
51
85
152
165
15
32
75
7
34
165
22
179
29
148
15
60
18
57
45
82
202
112
98
46
233
227
131
81
59
194
108
134
7
4
255
46
27
5
0
0
0
40
34
0
134
226
7
241
229
51
207
97
164
15
117
38
7
34
103
150
178
29
89
100
61
18
9
90
82
202
27
199
46
233
5
109
81
59
15
82
136
7
4
255
46
27
5
0
0
0
40
34
0
134
227
141
198
229
51
211
56
165
15
95
4
7
34
15
181
178
29
154
111
60
18
218
23
82
202
109
142
46
233
142
127
81
59
57
20
135
7
4
255
46
27
5
0
0
0
40
34
0
134
228
160
127
229
51
242
205
165
15
255
43
7
34
184
252
178
29
255
236
59
18
31
19
82
202
91
74
46
233
97
128
81
59
99
63
134
7
4
255
46
27
5
0
0
0
40
34
0
134
229
183
141
229
51
151
44
165
15
179
96
7
34
223
87
179
29
201
196
59
18
229
55
82
202
11
225
46
233
77
183
81
59
100
87
134
7
4
255
46
27
5
0
0
0
40
34
0
134
230
216
70
229
51
62
125
165
15
179
167
7
34
166
100
179
29
246
70
60
18
49
107
82
202
125
80
46
233
3
122
81
59
51
132
134
7
4
255
46
27
5
0
0
0
40
34
0
134
231
123
226
228
51
80
146
165
15
14
55
8
34
158
205
179
29
94
176
60
18
21
201
82
202
224
244
45
233
13
84
81
59
162
153
134
7
4
255
46
27
5
0
0
0
40
34
0
134
232
109
238
228
51
146
157
164
15
90
149
8
34
182
30
180
29
154
46
61
18
217
32
83
202
152
121
46
233
201
109
81
59
40
97
135
7
4
255
46
27
5
0
0
0
40
34
0
134
233
237
180
228
51
224
158
164
15
105
236
8
34
50
233
179
29
83
163
62
18
233
129
83
202
51
177
45
233
209
250
80
59
118
139
136
7
4
255
46
27
5
0
0
0
40
34
0
134
234
16
110
228
51
253
164
164
15
161
85
9
34
205
59
180
29
100
229
62
18
24
198
83
202
155
123
45
233
224
228
80
59
205
149
136
7
4
255
46
27
5
0
0
0
40
34
0
134
235
159
40
228
51
82
164
165
15
41
74
9
34
128
46
180
29
249
145
62
18
93
162
83
202
97
204
44
233
51
187
80
59
29
203
135
7
4
255
46
27
5
0
0
0
40
34
0
134
236
85
50
228
51
76
120
165
15
150
79
9
34
16
111
180
29
201
7
62
18
33
151
83
202
126
54
45
233
79
241
80
59
125
98
135
7
4
255
46
27
5
0
0
0
40
34
0
134
237
161
148
227
51
135
207
167
15
121
44
9
34
179
169
180
29
188
68
60
18
78
30
83
202
71
28
44
233
228
221
80
59
95
163
132
7