*** FIRST HEADER ***
4
255
6
127
6
0
146
253
0
4
255
10
27
5
0
0
0
4
30
0
0
79
4
255
6
19
5
0
0
0
0
4
255
22
27
5
0
0
0
16
34
0
132
247
*** EULER ANGLE DATA ***
190
132
129
66
128
223
229
63
24
115
198
192
*** OTHER HEADER ***
4
255
22
27
5
0
0
0
16
34
0
132
248
*** EULER ANGLE DATA ***
223
135
129
66
128
30
231
63
154
204
198
192
*** OTHER HEADER ***
4
255
22
27
5
0
0
0
16
34
0
132
249
*** EULER ANGLE DATA ***
168
135
129
66
64
59
231
63
164
197
198
192
*** OTHER HEADER ***
4
255
138
27
5
0
0
0
132
34
0
136
64
*** EMG DATA ***
120
119
114
117
117
117
118
116
119
119
96
115
115
115
117
117
119
118
92
114
115
114
116
117
119
117
90
113
114
113
116
118
119
117
89
113
113
112
116
119
120
117
101
117
120
126
121
119
120
119
117
119
123
127
119
119
119
119
131
119
119
123
119
118
119
119
152
120
117
120
118
116
119
120
169
122
118
116
118
115
120
118
169
120
117
117
119
114
119
119
143
120
118
117
118
115
119
119
108
117
118
118
118
115
120
119
102
116
117
117
118
116
120
118
97
115
115
115
117
117
120
118
88
113
115
114
117
118
*** OTHER HEADER ***
4
255
22
27
5
0
0
0
16
34
0
132
250
*** EULER ANGLE DATA ***
150
134
129
66
128
176
229
63
194
82
198
192
*** OTHER HEADER ***
4
255
138
27
5
0
0
0
132
34
0
136
65
*** EMG DATA ***
119
117
74
112
114
113
116
118
120
116
78
113
113
113
115
119
118
117
97
117
120
127
119
120
118
117
121
118
122
126
119
119
120
118
141
120
119
124
119
118
120
119
152
120
117
120
119
117
119
120
155
120
118
117
118
114
120
120
158
120
117
116
118
114
119
119
160
121
117
116
117
114
119
119
137
119
118
117
117
115
120
119
112
116
117
117
118
116
120
119
91
114
115
116
118
117
120
118
77
113
115
114
116
117
119
118
77
113
114
112
115
118
119
117
80
112
113
113
115
118
119
117
93
119
120
124
120
119
*** OTHER HEADER ***
4
255
138
27
5
0
0
0
132
34
0
136
66
*** EMG DATA ***
120
118
107
120
123
127
119
119
120
119
122
118
119
124
119
118
120
120
140
119
117
119
119
117
119
120
153
120
118
117
118
115
120
119
171
122
117
116
118
114
119
119
158
121
118
117
118
114
119
119
142
120
118
118
117
115
119
119
116
118
117
117
118
116
119
118
98
115
116
116
118
116
120
117
95
115
115
115
117
118
119
117
93
114
115
114
115
118
120
117
84
113
112
112
115
119
120
117
96
117
117
124
119
120
120
117
101
118
124
128
120
119
119
119
109
117
120
124
118
118
119
120
133
118
117
119
118
116
4
255
22
27
5
0
0
0
16
34
0
132
251
186
133
129
66
64
10
229
63
105
50
198
192
4
255
22
27
5
0
0
0
16
34
0
132
252
165
132
129
66
128
144
229
63
164
95
198
192
4
255
22
27
5
0
0
0
16
34
0
132
253
255
131
129
66
128
210
229
63
252
105
198
192
4
255
138
27
5
0
0
0
132
34
0
136
67
119
120
162
121
118
116
118
114
120
119
171
121
117
117
118
114
119
119
170
121
118
117
117
114
119
119
152
120
117
116
117
114
120
118
135
119
118
118
118
116
119
118
112
116
116
116
118
116
120
118
97
114
115
114
117
118
120
117
84
113
114
113
116
118
119
117
86
113
113
112
115
119
119
117
97
116
118
119
120
118
120
118
112
119
124
129
119
120
120
119
125
119
120
123
118
118
120
120
151
121
117
119
118
116
120
119
171
121
117
117
119
116
119
120
171
122
118
116
118
114
120
119
161
121
117
117
118
115
4
255
22
27
5
0
0
0
16
34
0
132
254
139
129
129
66
0
28
229
63
47
70
198
192
4
255
138
27
5
0
0
0
132
34
0
136
68
120
119
147
119
118
117
118
116
118
117
134
118
117
117
118
116
119
118
117
115
115
115
116
116
119
118
94
115
116
114
116
117
120
116
66
111
115
112
116
118
120
117
70
112
113
112
116
120
120
117
94
116
115
118
118
120
119
117
113
120
123
130
120
119
120
119
129
119
119
125
118
118
119
120
142
119
118
122
118
116
120
119
142
119
118
117
119
116
120
120
153
119
118
116
118
114
120
119
157
120
117
116
118
115
119
119
132
119
118
117
118
115
120
119
117
118
117
117
118
116
119
119
83
115
117
115
117
116
4
255
22
27
5
0
0
0
16
34
0
132
255
2
127
129
66
64
205
227
63
61
248
197
192
4
255
138
27
5
0
0
0
132
34
0
136
69
120
117
79
114
115
115
117
118
120
118
82
112
114
113
116
118
119
117
79
113
114
111
115
118
120
116
81
111
115
117
120
118
119
118
98
120
123
130
120
117
120
119
120
118
119
126
119
119
119
120
154
120
118
122
118
116
119
120
164
121
117
118
118
115
120
119
162
121
117
115
118
114
119
119
150
120
117
115
117
114
119
119
127
119
118
116
118
115
119
119
117
118
118
116
117
115
119
119
99
116
117
116
117
116
120
118
83
113
115
115
118
117
120
116
75
113
114
113
116
119
120
116
88
113
113
112
116
119
4
255
22
27
5
0
0
0
16
34
0
132
0
94
130
129
66
0
176
227
63
166
247
197
192
4
255
138
27
5
0
0
0
132
34
0
136
70
119
117
86
116
115
118
119
120
120
117
95
117
124
130
120
119
118
117
112
116
120
124
119
119
119
119
137
119
118
121
119
117
119
120
165
122
118
117
118
115
119
119
173
122
118
116
118
114
120
119
168
120
117
116
118
114
120
119
147
119
117
117
118
115
119
120
123
118
118
118
117
115
120
119
100
115
116
116
118
117
120
118
98
114
115
115
117
118
120
118
90
113
114
113
116
118
120
117
87
113
113
112
115
119
119
117
104
115
114
114
118
119
119
118
118
122
124
129
119
119
120
118
127
120
121
125
119
118
4
255
138
27
5
0
0
0
132
34
0
136
71
119
120
141
120
117
120
118
117
119
119
145
118
117
117
118
115
120
120
156
119
117
115
118
114
119
119
158
119
117
116
118
114
119
119
147
120
117
116
117
114
119
118
124
117
117
117
118
116
120
119
113
116
116
116
118
117
118
117
92
114
115
115
117
117
120
117
83
113
115
113
117
118
120
117
84
113
114
112
115
119
120
117
85
114
114
112
118
119
121
118
103
120
123
130
120
119
119
119
112
118
120
126
119
119
119
119
141
120
118
122
118
116
119
120
151
121
118
118
118
115
119
120
164
122
117
115
118
114
4
255
22
27
5
0
0
0
16
34
0
132
1
211
133
129
66
0
161
227
63
224
253
197
192
4
255
22
27
5
0
0
0
16
34
0
132
2
66
130
129
66
64
149
230
63
182
174
198
192
4
255
22
27
5
0
0
0
16
34
0
132
3
138
126
129
66
64
215
230
63
7
177
198
192
4
255
138
27
5
0
0
0
132
34
0
136
72
120
120
160
119
118
116
118
115
119
119
131
119
117
116
117
115
120
119
113
116
117
117
118
116
119
118
102
116
117
117
118
116
119
118
97
114
114
114
117
117
120
117
96
113
113
112
115
117
120
116
92
113
113
112
115
119
120
117
91
113
113
112
117
120
119
118
105
119
125
130
121
119
119
119
122
119
122
125
119
119
119
120
141
120
118
121
118
117
119
120
157
121
118
118
118
115
119
120
166
122
118
117
117
114
119
119
167
121
118
117
117
114
119
119
161
120
117
118
119
115
119
119
143
120
118
117
118
115
4
255
22
27
5
0
0
0
16
34
0
132
4
108
123
129
66
0
228
229
63
89
107
198
192
4
255
138
27
5
0
0
0
132
34
0
136
73
119
119
111
117
117
117
118
116
119
118
93
115
116
116
116
115
119
118
86
113
115
116
116
118
120
117
83
112
113
113
115
119
119
116
83
111
113
113
115
119
119
118
98
120
123
127
121
119
120
118
116
119
122
124
119
119
120
119
143
119
119
121
119
117
120
119
153
120
118
118
119
116
119
120
170
121
118
116
118
114
119
119
172
122
118
117
118
114
119
119
150
120
117
117
118
115
119
119
121
118
118
117
118
115
119
119
103
116
117
118
118
116
120
118
74
113
115
115
118
118
120
118
59
112
114
113
116
118
4
255
22
27
5
0
0
0
16
34
0
132
5
175
121
129
66
128
46
229
63
132
83
198
192
4
255
138
27
5
0
0
0
132
34
0
136
74
119
118
68
112
113
112
115
119
120
117
71
112
113
111
116
120
119
118
88
119
124
130
120
119
118
117
94
117
122
128
119
118
119
119
121
116
117
122
118
117
120
120
139
119
118
119
119
116
120
119
147
120
116
116
118
114
119
119
152
119
118
117
119
114
120
119
155
120
117
117
118
115
120
119
140
119
118
117
118
116
120
118
120
117
117
117
119
116
119
118
103
116
116
116
117
116
119
118
88
114
115
113
116
118
120
117
81
112
113
112
115
118
120
116
89
113
113
113
116
120
120
117
115
120
123
130
121
119
4
255
22
27
5
0
0
0
16
34
0
132
6
109
127
129
66
64
35
230
63
106
147
198
192
4
255
138
27
5
0
0
0
132
34
0
136
75
120
117
124
119
123
127
120
118
119
118
136
118
118
122
118
117
119
119
154
120
117
119
119
115
119
119
163
120
117
116
118
114
119
119
166
121
118
116
117
113
119
119
159
120
116
115
117
114
119
119
139
119
118
118
118
115
119
119
119
118
117
116
118
116
120
118
104
115
115
114
117
117
119
117
88
114
115
112
117
118
120
117
80
113
113
112
116
119
120
116
75
112
113
112
117
119
120
118
106
119
125
129
120
119
119
118
121
119
124
131
118
119
119
120
143
120
118
124
118
117
120
119
127
118
118
121
119
116
4
255
22
27
5
0
0
0
16
34
0
132
7
82
125
129
66
64
92
230
63
180
145
198
192
4
255
22
27
5
0
0
0
16
34
0
132
8
225
122
129
66
64
135
229
63
18
77
198
192
4
255
138
27
5
0
0
0
132
34
0
136
76
120
120
126
118
118
117
118
115
119
120
140
119
118
116
117
114
120
118
156
120
117
117
119
115
120
118
137
118
117
117
118
116
120
119
117
117
116
116
117
115
119
118
92
115
116
116
117
116
119
117
85
114
115
114
116
118
120
117
82
113
113
113
116
119
120
116
79
114
113
114
116
120
120
117
89
118
123
126
120
119
120
117
105
117
123
125
120
119
120
119
127
118
118
121
119
118
119
120
144
119
118
118
119
115
120
120
155
121
117
116
118
114
120
119
153
119
118
117
118
115
119
119
138
119
118
117
118
115
4
255
22
27
5
0
0
0
16
34
0
132
9
249
120
129
66
0
191
229
63
127
81
198
192
4
255
138
27
5
0
0
0
132
34
0
136
77
119
119
120
117
118
118
118
115
120
118
114
117
118
118
118
116
119
118
103
116
116
116
117
117
120
118
95
114
115
114
117
118
119
118
89
113
113
111
115
117
119
117
80
112
113
112
116
119
119
118
89
120
120
128
120
119
119
118
103
118
122
127
118
119
119
120
131
118
118
123
118
117
119
119
142
120
118
120
117
116
119
119
146
120
118
116
118
114
119
119
156
121
117
116
118
114
119
119
115
117
118
117
118
115
120
119
103
117
117
117
118
115
120
119
105
116
117
118
118
116
119
118
84
115
116
116
117
117
4
255
22
27
5
0
0
0
16
34
0
132
10
160
119
129
66
128
130
230
63
42
145
198
192
4
255
138
27
5
0
0
0
132
34
0
136
78
119
118
77
113
115
115
117
117
120
117
85
113
114
112
115
118
120
117
98
112
112
111
116
120
120
118
111
121
121
128
120
119
119
118
124
122
123
129
119
119
120
118
140
120
118
124
119
118
119
120
157
120
116
118
117
115
119
119
165
121
118
117
118
114
119
119
177
121
118
116
118
114
120
119
197
123
117
116
118
115
120
119
172
121
117
117
118
116
120
119
147
119
118
117
118
116
120
118
128
116
115
115
117
117
120
118
145
118
115
114
116
118
120
118
115
115
113
113
116
119
120
117
92
113
113
112
116
119
4
255
22
27
5
0
0
0
16
34
0
132
11
103
120
129
66
64
120
230
63
30
128
198
192
4
255
138
27
5
0
0
0
132
34
0
136
79
119
118
95
119
120
127
120
119
120
118
109
119
123
127
120
119
120
119
120
117
119
124
119
119
120
119
140
119
118
120
119
117
119
119
149
120
118
117
118
114
119
119
152
120
117
114
117
113
118
118
152
119
118
116
118
114
119
118
140
118
117
117
118
115
120
119
116
117
117
117
118
116
120
118
91
114
116
116
118
117
120
118
58
112
115
114
117
118
120
118
53
111
115
113
116
119
119
117
64
112
113
112
115
119
120
118
103
119
117
124
119
120
120
118
119
121
123
127
119
119
119
119
129
119
119
123
119
118
4
255
22
27
5
0
0
0
16
34
0
132
12
238
118
129
66
192
178
228
63
58
23
198
192
4
255
138
27
5
0
0
0
132
34
0
136
80
119
120
150
120
118
120
119
116
120
120
157
120
117
118
118
115
119
120
150
121
117
116
118
114
119
119
142
119
118
117
118
115
119
119
124
118
118
118
118
115
119
119
124
117
116
116
117
115
119
118
98
116
116
116
117
116
119
118
82
113
115
114
117
118
119
117
76
113
115
114
115
118
120
117
76
112
112
112
115
119
120
117
95
117
116
123
122
120
119
118
110
119
124
128
119
119
120
119
125
118
119
124
119
118
120
120
116
117
118
120
118
117
120
119
131
118
118
117
119
115
119
120
149
120
118
117
118
114
4
255
138
27
5
0
0
0
132
34
0
136
81
120
119
161
120
117
117
118
115
120
119
152
119
118
117
118
115
120
119
115
118
118
117
118
116
119
119
89
115
116
116
117
116
120
118
85
115
115
114
117
118
119
117
82
113
114
113
116
118
120
116
86
113
113
112
116
118
119
117
93
115
118
122
119
119
120
118
119
122
123
127
120
119
119
119
134
120
120
123
118
118
120
119
161
120
117
120
119
116
120
119
166
121
117
117
119
116
119
119
159
121
117
117
119
114
119
119
142
120
117
117
118
115
119
119
124
118
118
117
118
116
120
119
119
118
117
117
118
115
4
255
22
27
5
0
0
0
16
34
0
132
13
79
118
129
66
192
134
229
63
137
69
198
192
4
255
22
27
5
0
0
0
16
34
0
132
14
162
122
129
66
192
224
229
63
19
102
198
192
4
255
22
27
5
0
0
0
16
34
0
132
15
87
122
129
66
64
134
230
63
205
134
198
192
4
255
138
27
5
0
0
0
132
34
0
136
82
120
118
103
115
116
116
117
117
119
118
91
114
115
115
117
116
119
117
84
113
114
112
115
118
119
117
73
112
113
113
115
118
119
117
82
115
117
120
120
118
120
117
100
119
124
129
119
120
119
119
123
118
119
123
117
117
119
119
141
119
118
120
117
116
119
121
152
120
116
117
118
115
119
118
154
119
117
116
118
114
120
120
155
119
118
117
118
115
120
119
129
118
117
117
118
115
120
118
119
118
118
118
119
115
120
119
109
116
116
116
118
117
119
118
104
115
116
115
117
117
120
118
87
113
114
113
116
119
4
255
22
27
5
0
0
0
16
34
0
132
16
129
122
129
66
128
188
230
63
86
144
198
192
4
255
138
27
5
0
0
0
132
34
0
136
83
119
117
84
113
114
112
115
119
120
117
94
116
115
115
120
119
119
118
112
118
124
130
120
119
119
119
131
119
122
126
118
118
120
120
145
119
118
121
119
117
119
120
152
120
117
117
117
114
119
118
149
119
118
116
118
114
118
118
149
119
117
115
118
115
119
119
143
120
117
116
117
114
120
119
128
118
117
117
118
116
119
119
110
117
116
115
118
116
120
118
88
114
115
114
116
117
119
117
83
113
115
113
116
118
120
117
83
112
113
112
115
119
120
117
90
113
115
116
121
120
119
118
107
119
124
129
120
119
4
255
22
27
5
0
0
0
16
34
0
132
17
97
119
129
66
128
255
230
63
7
167
198
192
4
255
138
27
5
0
0
0
132
34
0
136
84
119
119
123
119
121
125
118
118
119
120
150
120
118
121
118
116
119
120
158
121
118
118
118
115
120
119
163
121
117
115
118
114
119
119
156
120
117
117
118
114
119
119
134
119
118
117
118
115
119
118
124
118
118
118
118
115
119
118
110
117
117
116
117
116
120
118
94
114
114
113
115
116
120
117
80
112
113
111
115
117
120
116
84
113
113
112
115
119
120
116
80
113
114
113
120
119
119
118
100
119
125
130
121
119
120
118
117
117
121
127
119
119
120
119
152
120
117
121
118
117
119
120
162
121
118
119
119
115
4
255
22
27
5
0
0
0
16
34
0
132
18
81
119
129
66
192
28
230
63
0
101
198
192
4
255
138
27
5
0
0
0
132
34
0
136
85
119
120
155
121
118
116
117
114
120
120
150
119
117
116
118
115
120
119
141
119
118
117
118
115
120
119
133
118
118
118
119
116
120
119
114
117
116
115
117
116
119
118
68
114
116
114
116
117
120
118
73
113
114
113
116
118
120
116
82
111
112
111
115
118
120
117
93
113
113
114
118
120
119
117
113
119
121
128
119
119
119
119
125
120
122
127
119
118
119
120
159
121
119
122
119
117
120
120
175
122
118
118
118
115
119
120
170
121
117
116
118
114
120
119
156
120
117
117
118
115
120
118
137
118
118
117
118
115
4
255
22
27
5
0
0
0
16
34
0
132
19
157
122
129
66
128
199
230
63
8
137
198
192
4
255
22
27
5
0
0
0
16
34
0
132
20
60
122
129
66
0
125
231
63
55
172
198
192
4
255
138
27
5
0
0
0
132
34
0
136
86
120
119
122
117
117
117
118
116
120
119
106
116
116
116
118
117
120
117
95
115
115
115
117
117
120
118
87
114
114
113
116
118
120
117
78
112
113
113
116
119
119
118
78
112
114
113
119
120
120
117
93
120
124
129
120
119
120
119
111
118
122
125
119
119
119
120
132
119
119
121
117
116
119
119
144
118
117
117
118
115
120
118
162
120
117
116
118
114
119
119
155
120
117
116
118
114
119
119
137
118
118
117
118
114
120
119
131
118
118
117
118
116
120
118
126
118
117
116
117
116
119
118
108
116
116
116
117
117
4
255
22
27
5
0
0
0
16
34
0
132
21
136
125
129
66
128
166
230
63
95
112
198
192
4
255
138
27
5
0
0
0
132
34
0
136
87
120
118
81
113
114
113
116
118
119
117
72
112
114
111
115
118
120
116
77
113
113
113
117
120
119
118
102
120
124
130
120
119
119
118
117
119
123
126
119
119
119
120
142
120
118
121
118
117
120
120
165
121
117
118
119
116
118
119
165
121
117
117
119
114
119
119
160
120
115
116
117
113
119
119
148
120
117
116
117
113
120
119
125
117
117
117
118
116
120
119
106
115
116
117
118
116
119
119
91
115
116
115
117
117
120
118
87
113
115
114
116
118
120
118
84
113
113
113
116
119
120
116
95
114
113
113
116
120
4
255
22
27
5
0
0
0
16
34
0
132
22
218
122
129
66
192
70
230
63
175
103
198
192
4
255
138
27
5
0
0
0
132
34
0
136
88
119
118
112
120
125
129
119
119
120
119
123
119
122
125
119
119
119
120
142
120
117
121
118
117
119
119
162
121
118
119
118
115
120
120
176
121
117
116
118
115
119
119
168
121
118
117
117
114
120
118
154
120
117
117
118
115
120
119
132
118
117
117
118
116
118
117
109
116
117
117
118
116
120
118
94
115
115
114
116
116
119
118
90
113
114
111
115
117
119
117
88
113
113
112
116
118
120
118
90
113
113
112
116
120
119
118
99
120
122
131
120
119
120
119
113
118
123
128
119
119
120
119
137
119
119
124
119
117
4
255
22
27
5
0
0
0
16
34
0
132
23
140
123
129
66
64
213
230
63
102
143
198
192
4
255
138
27
5
0
0
0
132
34
0
136
89
119
119
161
120
117
119
119
116
120
120
169
121
117
116
118
115
119
119
167
122
118
116
117
113
119
119
150
121
118
116
118
115
119
119
125
118
118
118
118
115
119
119
110
117
118
118
117
115
119
118
63
113
115
115
118
117
120
117
48
111
116
114
117
118
119
118
59
112
113
111
116
119
119
117
75
112
112
111
115
119
118
117
98
119
124
130
120
118
120
117
113
119
123
129
119
119
120
119
131
118
118
124
119
118
119
120
149
120
118
120
118
116
120
119
153
120
117
117
119
114
119
119
156
120
117
116
118
113
4
255
22
27
5
0
0
0
16
34
0
132
24
30
122
129
66
64
255
231
63
243
196
198
192
4
255
138
27
5
0
0
0
132
34
0
136
90
119
119
153
120
117
116
118
114
120
119
130
117
117
117
118
116
119
119
113
117
118
118
117
115
119
119
108
117
116
116
117
117
120
118
94
115
115
114
116
118
119
117
87
114
114
114
116
118
119
117
88
113
113
112
115
119
120
118
95
118
123
127
122
120
119
118
106
117
123
124
119
119
119
119
126
117
117
119
118
117
120
118
141
118
116
117
117
115
120
120
160
120
117
117
118
114
119
119
161
120
117
117
118
114
120
119
109
117
117
117
118
115
120
118
95
115
117
117
118
115
120
118
100
116
117
117
118
116
4
255
22
27
5
0
0
0
16
34
0
132
25
180
120
129
66
192
183
232
63
255
234
198
192
4
255
22
27
5
0
0
0
16
34
0
132
26
128
119
129
66
128
190
232
63
135
232
198
192
4
255
138
27
5
0
0
0
132
34
0
136
91
119
118
93
115
116
116
117
117
120
117
86
113
115
115
117
118
120
117
86
113
114
113
116
119
120
117
87
114
112
112
115
119
119
118
101
119
125
129
121
119
120
118
110
118
123
127
120
119
119
119
131
119
118
122
118
117
119
121
170
121
116
117
117
115
118
119
175
122
117
116
118
114
118
118
169
120
116
116
118
114
119
119
158
121
118
117
117
114
120
119
138
117
116
116
117
115
120
118
125
118
118
118
119
116
119
119
85
115
116
115
117
116
120
118
72
112
115
114
117
118
120
117
74
112
113
113
116
119
4
255
22
27
5
0
0
0
16
34
0
132
27
185
123
129
66
192
162
232
63
151
222
198
192
4
255
138
27
5
0
0
0
132
34
0
136
92
119
117
85
113
113
112
115
119
119
118
105
120
119
128
120
119
120
118
123
120
123
128
119
119
119
119
143
121
119
123
118
118
119
120
177
121
118
119
118
116
119
120
190
123
117
116
118
115
120
118
175
121
117
117
118
115
119
119
189
123
117
117
118
115
120
119
168
120
117
117
118
116
120
118
138
118
118
118
119
116
119
118
108
116
116
115
116
116
119
117
93
113
115
114
117
117
120
118
82
111
114
113
115
119
120
116
84
112
113
112
115
120
119
118
107
121
120
127
119
120
119
118
114
121
123
129
120
119
4
255
22
27
5
0
0
0
16
34
0
132
28
233
124
129
66
192
123
232
63
54
201
198
192
4
255
138
27
5
0
0
0
132
34
0
136
93
119
119
121
119
120
124
118
118
119
119
131
118
118
120
119
116
120
120
143
119
118
118
119
115
119
119
157
121
118
117
118
114
119
119
168
121
118
117
118
114
120
119
151
120
117
117
118
115
119
119
127
119
118
117
118
115
120
118
80
113
115
116
118
117
120
118
34
111
115
114
117
118
119
117
44
111
115
113
116
118
118
115
65
111
113
112
115
119
120
116
86
115
117
127
121
119
120
118
100
118
123
127
119
120
120
119
125
118
119
124
119
119
119
120
133
119
118
120
118
116
119
119
137
118
118
117
118
115
4
255
22
27
5
0
0
0
16
34
0
132
29
53
124
129
66
64
89
232
63
54
192
198
192
4
255
22
27
5
0
0
0
16
34
0
132
30
228
126
129
66
192
122
232
63
212
183
198
192
4
255
138
27
5
0
0
0
132
34
0
136
94
119
119
141
119
118
115
117
113
119
119
143
120
118
116
117
114
119
119
126
119
118
117
118
115
120
119
111
117
117
117
118
116
120
119
81
113
115
115
117
117
119
118
63
112
115
115
117
117
120
118
64
111
114
113
116
118
120
117
69
112
112
112
115
119
120
117
72
114
117
125
120
120
119
118
100
120
124
127
119
119
119
119
126
119
119
123
117
117
119
120
145
120
117
119
118
116
118
118
148
119
118
117
118
114
119
119
158
121
117
116
118
114
119
119
158
121
117
117
118
114
120
119
139
119
118
117
118
116
4
255
22
27
5
0
0
0
16
34
0
132
31
84
127
129
66
0
177
231
63
242
137
198
192
4
255
138
27
5
0
0
0
132
34
0
136
95
120
118
122
117
117
117
118
116
119
118
104
116
116
116
117
117
119
118
97
114
116
115
116
117
119
117
86
113
115
114
116
118
119
118
93
114
114
112
115
119
120
117
110
118
117
118
119
120
120
117
124
121
123
129
120
119
119
119
143
121
119
125
119
118
120
120
162
118
117
119
118
116
119
119
168
121
118
118
118
115
119
119
172
121
117
116
118
113
119
118
167
121
117
117
118
114
119
118
147
119
118
117
117
114
119
119
134
119
117
117
118
115
118
117
111
116
116
116
117
116
119
118
105
116
115
114
116
117
4
255
22
27
5
0
0
0
16
34
0
132
32
37
125
129
66
128
77
232
63
81
159
198
192
4
255
22
27
5
0
0
0
16
34
0
132
33
62
126
129
66
192
118
233
63
139
222
198
192
4
255
138
27
5
0
0
0
132
34
0
136
96
119
118
97
114
115
114
115
118
120
117
88
112
113
113
115
119
119
117
87
114
117
123
118
119
119
118
103
119
124
128
119
119
119
119
127
122
120
124
118
118
120
120
137
119
117
120
118
116
119
119
154
120
117
118
119
115
120
119
161
120
117
116
119
115
120
119
172
121
117
116
118
115
119
119
147
120
118
116
118
115
119
119
126
119
117
116
117
115
119
118
107
116
116
116
117
115
119
118
91
115
115
115
117
117
120
117
76
111
113
113
115
117
120
117
80
111
112
112
115
119
119
118
82
116
114
117
121
118
4
255
22
27
5
0
0
0
16
34
0
132
34
90
130
129
66
192
200
233
63
33
243
198
192
4
255
138
27
5
0
0
0
132
34
0
136
97
119
118
97
118
125
128
119
119
119
118
112
116
120
122
118
118
119
120
141
120
118
119
118
116
120
120
153
119
118
117
118
115
119
119
154
120
118
117
118
114
119
119
152
120
118
118
118
115
120
118
140
119
118
118
119
116
120
119
128
117
117
117
118
116
119
118
110
117
117
117
118
116
119
118
95
115
116
116
118
117
120
118
88
113
114
113
116
119
120
117
83
112
112
112
115
119
119
118
91
115
114
115
119
119
120
117
104
119
125
128
120
119
119
119
120
118
121
124
119
118
119
120
143
120
118
120
117
116
4
255
22
27
5
0
0
0
16
34
0
132
35
136
129
129
66
128
130
233
63
78
220
198
192
4
255
138
27
5
0
0
0
132
34
0
136
98
120
119
151
120
117
117
119
115
119
119
155
120
118
118
118
114
120
118
164
121
118
118
119
115
119
119
159
122
117
117
118
115
119
119
134
119
118
118
118
115
119
119
107
117
117
116
117
116
120
118
89
114
115
115
118
118
120
117
73
112
114
114
117
119
120
116
78
113
113
113
116
119
119
117
80
113
114
114
120
119
119
118
90
118
124
129
120
118
119
119
105
118
121
125
118
118
119
120
130
119
119
121
118
117
119
120
145
120
117
117
118
115
120
120
158
120
116
115
117
113
119
119
155
120
117
117
119
114
4
255
22
27
5
0
0
0
16
34
0
132
36
210
128
129
66
128
3
234
63
113
245
198
192
4
255
138
27
5
0
0
0
132
34
0
136
99
120
119
131
118
118
117
118
116
119
119
116
118
118
117
118
116
120
119
102
116
116
117
118
117
120
117
82
114
115
115
118
118
119
118
67
112
115
114
116
118
119
117
78
113
114
112
115
119
119
117
95
115
114
113
119
120
119
118
113
120
124
128
119
120
120
119
130
119
121
125
119
119
119
119
151
120
117
121
118
116
119
120
157
121
117
117
118
115
119
120
154
120
117
115
117
114
119
118
146
119
117
116
118
115
118
118
137
118
118
117
118
114
119
118
119
116
116
117
118
115
119
118
101
116
117
117
118
116
4
255
138
27
5
0
0
0
132
34
0
136
100
120
118
84
113
115
115
117
117
119
118
74
113
115
113
115
117
119
117
75
112
113
113
116
118
120
117
82
112
113
113
118
120
120
118
100
121
123
129
120
119
119
119
120
119
122
127
119
119
120
119
149
120
118
122
119
117
120
120
166
121
117
118
118
116
119
119
175
122
118
117
118
114
120
119
170
120
117
116
118
115
120
118
152
119
118
117
118
115
119
119
139
119
118
118
117
115
119
118
122
118
117
116
116
115
119
117
108
116
116
116
116
117
119
117
95
114
115
114
116
118
119
117
88
113
113
111
115
118
4
255
22
27
5
0
0
0
16
34
0
132
37
162
133
129
66
64
138
233
63
194
228
198
192
4
255
22
27
5
0
0
0
16
34
0
132
38
17
131
129
66
0
213
233
63
120
248
198
192
4
255
22
27
5
0
0
0
16
34
0
132
39
10
129
129
66
64
8
234
63
164
14
199
192
4
255
138
27
5
0
0
0
132
34
0
136
101
120
116
103
114
113
113
116
120
119
117
112
118
124
128
121
119
119
118
125
121
122
125
118
118
119
120
134
120
118
120
118
117
120
119
138
119
118
118
119
116
120
119
166
121
117
117
119
115
119
120
173
122
118
117
118
114
119
119
149
120
117
118
118
114
120
119
128
117
117
117
118
115
119
119
111
117
117
117
118
116
120
118
95
115
115
115
117
117
119
117
82
113
115
114
117
118
120
117
76
112
113
113
116
119
119
117
82
113
113
113
116
119
119
117
97
117
123
129
120
119
119
119
112
117
120
124
118
118
4
255
22
27
5
0
0
0
16
34
0
132
40
32
128
129
66
128
101
234
63
102
28
199
192
4
255
138
27
5
0
0
0
132
34
0
136
102
120
119
132
118
118
121
118
117
120
120
154
121
117
118
118
116
120
120
160
120
117
116
118
115
120
119
153
120
117
117
118
114
120
119
137
119
118
117
118
115
119
119
123
118
118
117
118
115
120
119
113
116
117
117
118
116
120
117
97
115
116
116
118
118
119
118
90
114
115
113
116
117
120
117
79
112
113
113
116
119
120
117
82
113
113
113
116
119
119
117
104
118
123
129
120
119
120
118
125
119
123
127
119
119
119
119
140
119
119
122
118
117
118
119
144
119
118
119
119
116
120
120
156
120
117
116
118
115
4
255
22
27
5
0
0
0
16
34
0
132
41
136
126
129
66
0
116
233
63
139
230
198
192
4
255
138
27
5
0
0
0
132
34
0
136
103
120
119
170
121
117
117
118
115
120
118
161
120
117
117
118
116
119
119
137
119
118
117
118
115
119
119
113
117
118
118
117
116
119
118
100
116
116
116
117
117
119
118
90
114
115
114
116
117
119
117
73
112
114
113
116
118
119
117
80
112
113
113
116
119
120
117
95
119
123
130
121
120
120
117
101
118
123
127
120
118
119
119
125
119
119
122
118
117
120
120
154
119
118
119
119
116
120
119
164
121
117
116
118
115
118
119
156
120
117
116
117
112
118
118
141
119
118
117
118
114
119
119
125
118
117
117
118
116
4
255
22
27
5
0
0
0
16
34
0
132
42
248
127
129
66
0
228
233
63
100
255
198
192
4
255
138
27
5
0
0
0
132
34
0
136
104
119
119
113
117
118
117
118
116
119
118
99
116
116
116
117
117
119
118
83
114
115
113
116
118
120
117
72
111
114
112
116
119
119
117
66
112
113
113
115
119
119
117
89
118
125
130
120
119
119
118
107
118
123
128
119
118
120
119
140
119
118
123
119
118
120
120
148
119
117
119
119
116
120
120
143
119
118
116
118
115
120
119
144
118
117
116
118
114
119
119
142
119
118
117
118
115
120
118
127
118
118
118
119
116
120
119
110
116
117
118
118
116
118
117
92
114
115
115
117
117
118
117
81
112
115
114
117
118
4
255
22
27
5
0
0
0
16
34
0
132
43
206
127
129
66
0
202
232
63
202
196
198
192
4
255
22
27
5
0
0
0
16
34
0
132
44
2
128
129
66
64
81
233
63
125
234
198
192
4
255
138
27
5
0
0
0
132
34
0
136
105
120
117
72
111
114
112
116
119
119
117
85
113
112
111
116
119
120
117
95
120
119
130
121
119
120
118
104
119
124
128
119
119
120
119
128
118
119
123
119
118
120
119
142
119
118
120
118
117
120
119
155
120
117
117
118
115
119
119
161
120
118
117
118
114
120
119
157
120
117
117
118
115
120
118
134
118
118
117
118
116
119
119
120
117
118
117
117
115
120
118
94
115
115
115
117
117
120
118
79
113
115
114
116
118
119
118
74
113
114
112
114
117
119
117
84
112
112
111
116
119
120
118
102
119
119
127
121
120
4
255
22
27
5
0
0
0
16
34
0
132
45
157
129
129
66
0
73
232
63
208
168
198
192
4
255
138
27
5
0
0
0
132
34
0
136
106
120
117
115
119
123
128
120
118
119
119
128
118
119
124
119
118
119
120
177
122
118
119
118
116
119
119
185
122
118
117
119
114
119
119
175
122
118
117
118
114
119
119
191
123
118
117
118
114
119
119
171
121
118
118
119
115
119
119
139
119
118
118
119
116
119
118
128
117
117
116
117
116
119
118
105
115
116
114
116
117
119
117
91
114
114
113
116
118
119
117
89
113
113
112
115
119
120
117
96
117
120
124
121
119
119
118
107
119
123
128
118
118
119
119
124
118
118
123
118
118
119
120
139
119
118
120
118
116
4
255
22
27
5
0
0
0
16
34
0
132
46
64
129
129
66
192
67
232
63
152
169
198
192
4
255
138
27
5
0
0
0
132
34
0
136
107
120
120
144
119
118
117
118
115
120
120
154
120
117
117
118
115
118
118
155
120
117
117
118
115
120
119
155
120
117
118
119
116
120
119
127
118
117
117
118
116
119
118
112
116
116
116
117
116
120
118
96
114
115
114
117
118
119
118
87
114
115
112
115
118
119
117
91
113
113
112
116
119
119
118
124
121
119
123
121
119
120
118
124
120
123
128
119
119
121
119
126
118
119
124
119
118
119
119
138
119
118
120
117
115
120
119
147
119
117
117
118
115
119
119
157
120
117
115
117
113
119
119
149
120
117
117
117
113
4
255
22
27
5
0
0
0
16
34
0
132
47
47
128
129
66
0
215
231
63
209
134
198
192
4
255
138
27
5
0
0
0
132
34
0
136
108
119
119
127
119
118
117
118
114
118
118
101
116
117
118
118
115
119
118
75
114
116
116
118
116
120
117
75
112
114
114
116
117
119
117
69
111
113
112
115
118
120
117
67
111
112
111
115
118
120
118
89
117
117
122
120
119
120
117
109
119
124
129
119
119
120
119
121
118
119
124
119
118
119
120
145
119
118
120
117
115
119
119
154
120
118
117
117
114
119
119
149
120
117
116
118
114
120
119
140
118
116
116
117
114
119
119
122
118
118
118
118
115
119
118
110
117
118
118
118
115
120
118
91
116
116
115
117
117
4
255
22
27
5
0
0
0
16
34
0
132
48
204
130
129
66
64
82
232
63
116
165
198
192
4
255
138
27
5
0
0
0
132
34
0
136
109
120
118
71
113
115
115
117
118
120
117
64
112
114
113
116
118
119
117
69
112
113
112
115
119
120
117
70
115
115
121
120
120
119
118
88
118
124
128
119
119
120
119
114
118
120
123
118
118
120
120
145
119
118
119
118
116
120
119
150
120
117
117
119
116
119
119
158
121
118
117
118
114
120
119
158
121
117
116
118
115
119
119
137
118
118
118
118
116
119
119
127
119
118
117
118
116
120
118
102
115
116
116
118
117
120
118
81
113
115
115
117
118
119
117
79
113
115
113
115
117
119
117
88
113
113
112
115
118
4
255
22
27
5
0
0
0
16
34
0
132
49
33
130
129
66
0
178
232
63
118
195
198
192
4
255
22
27
5
0
0
0
16
34
0
132
50
233
130
129
66
0
250
232
63
255
216
198
192
4
255
138
27
5
0
0
0
132
34
0
136
110
119
117
104
116
117
117
120
118
120
117
113
118
123
129
119
119
119
119
118
117
119
125
118
118
119
118
140
118
117
121
118
117
120
120
163
120
117
118
118
115
120
119
170
121
117
116
118
114
120
119
171
121
117
116
118
115
120
118
169
120
117
116
118
115
120
118
131
118
117
117
118
116
120
119
108
115
116
115
117
116
120
118
88
113
114
114
117
117
119
117
83
113
115
114
115
118
120
117
89
114
113
112
115
119
119
117
103
116
115
123
120
119
120
117
118
120
124
128
120
119
119
117
125
118
120
124
118
119
4
255
22
27
5
0
0
0
16
34
0
132
51
47
129
129
66
0
242
232
63
141
203
198
192
4
255
138
27
5
0
0
0
132
34
0
136
111
119
120
144
119
119
121
117
116
120
120
151
119
117
117
117
115
120
120
161
120
117
116
118
114
119
119
163
121
118
115
117
114
120
118
155
120
117
117
118
115
119
119
137
119
118
118
118
115
119
118
111
117
117
117
117
116
119
118
119
117
117
115
117
117
120
117
100
115
114
113
116
118
119
117
93
114
114
111
115
118
119
118
91
114
115
116
118
119
119
118
106
120
124
128
119
120
120
119
118
119
121
124
119
119
119
120
141
119
119
120
118
117
119
120
150
120
118
117
118
115
119
119
153
118
117
116
118
114
4
255
22
27
5
0
0
0
16
34
0
132
52
70
128
129
66
0
21
233
63
46
220
198
192
4
255
138
27
5
0
0
0
132
34
0
136
112
119
118
153
119
118
117
118
113
119
119
134
118
116
116
117
114
119
119
120
117
118
117
117
115
119
118
102
116
117
117
118
115
119
118
85
114
115
115
115
115
119
117
74
112
115
114
117
118
120
117
74
112
113
113
116
119
120
117
88
114
113
114
118
119
120
118
115
119
123
127
120
118
119
119
122
119
121
123
118
118
120
119
144
119
118
120
118
117
119
120
150
120
118
117
118
115
119
120
150
120
117
116
118
114
120
119
145
119
117
116
118
115
119
119
110
117
118
118
119
115
119
119
99
116
116
116
117
115
4
255
22
27
5
0
0
0
16
34
0
132
53
75
125
129
66
0
208
232
63
94
205
198
192
4
255
138
27
5
0
0
0
132
34
0
136
113
119
118
88
115
117
117
117
116
120
118
82
114
115
115
117
118
119
118
88
115
114
114
116
118
120
117
82
114
113
113
115
118
119
117
94
115
114
113
116
119
119
118
111
118
125
129
120
118
119
119
116
118
121
124
119
119
120
120
137
118
117
120
118
117
120
120
152
120
117
116
118
115
119
120
154
120
117
116
118
114
120
119
155
120
117
117
118
115
120
119
152
119
117
117
118
115
120
118
134
119
118
118
119
116
119
119
121
117
117
117
118
116
119
118
93
115
116
116
117
117
120
118
81
113
114
113
116
118
4
255
22
27
5
0
0
0
16
34
0
132
54
210
127
129
66
192
193
232
63
185
198
198
192
4
255
138
27
5
0
0
0
132
34
0
136
114
120
116
82
111
113
111
115
118
119
117
87
113
114
112
116
118
118
117
104
119
125
130
120
118
120
117
115
117
120
126
118
118
119
119
134
119
118
121
117
116
119
120
149
120
117
119
119
116
119
119
165
121
117
116
118
115
119
119
162
121
118
117
118
114
119
119
150
120
117
117
118
115
119
119
136
119
118
118
117
115
120
119
118
117
117
116
118
117
119
119
84
115
115
115
117
117
120
118
77
113
114
113
115
118
119
118
83
113
114
112
115
118
119
117
85
113
113
113
116
119
119
118
98
119
125
130
121
119
4
255
22
27
5
0
0
0
16
34
0
132
55
112
128
129
66
128
113
233
63
85
251
198
192
4
255
22
27
5
0
0
0
16
34
0
132
56
13
126
129
66
128
250
233
63
56
17
199
192
4
255
138
27
5
0
0
0
132
34
0
136
115
119
118
105
117
122
126
119
120
120
120
140
118
117
121
118
117
119
119
148
120
118
118
118
115
119
119
152
120
118
115
117
113
120
119
166
122
117
116
118
114
120
119
157
120
116
117
118
115
120
119
132
118
117
117
118
115
119
119
113
117
116
116
117
115
120
118
94
116
115
115
117
116
120
117
85
114
115
113
116
117
119
118
82
113
114
112
115
118
120
117
81
112
113
112
116
119
120
118
93
119
123
129
121
119
120
118
117
119
123
127
119
119
119
119
137
119
119
123
119
117
119
120
164
121
117
118
118
115
4
255
22
27
5
0
0
0
16
34
0
132
57
113
124
129
66
0
24
234
63
201
33
199
192
4
255
138
27
5
0
0
0
132
34
0
136
116
119
120
157
119
117
116
118
114
119
119
153
120
116
115
117
114
119
119
140
119
118
116
117
113
119
118
119
118
118
118
118
115
120
118
111
116
117
118
118
117
119
118
90
114
116
116
118
117
119
118
78
113
115
114
116
118
119
118
72
112
113
112
115
118
119
117
78
113
113
113
116
119
120
118
98
119
122
128
120
119
119
118
119
121
123
126
119
119
120
119
138
119
119
122
119
117
120
120
152
119
118
118
119
117
119
119
159
121
118
117
118
114
119
119
159
121
117
116
118
114
120
119
150
120
117
117
118
115
4
255
22
27
5
0
0
0
16
34
0
132
58
190
124
129
66
64
211
234
63
215
74
199
192
4
255
138
27
5
0
0
0
132
34
0
136
117
119
119
139
119
118
118
119
116
119
118
121
116
116
116
118
116
120
118
107
116
115
115
117
117
119
117
88
113
115
114
116
117
120
117
78
113
114
113
116
119
119
117
84
114
114
112
115
119
119
117
104
118
124
130
120
119
120
118
117
118
122
127
119
119
119
119
135
120
118
123
118
117
120
119
139
119
118
119
119
115
120
120
147
119
118
116
118
115
119
119
153
120
118
117
118
114
120
119
145
120
117
116
118
115
120
119
141
119
117
117
118
116
119
119
124
118
118
118
118
116
120
118
101
116
115
115
117
117
4
255
22
27
5
0
0
0
16
34
0
132
59
205
125
129
66
64
77
234
63
190
39
199
192
4
255
138
27
5
0
0
0
132
34
0
136
118
119
118
84
114
115
113
116
117
119
117
77
112
114
113
115
118
120
117
97
112
113
112
115
119
119
117
115
121
123
128
121
118
119
118
134
122
123
129
119
119
119
119
139
119
119
124
118
117
119
120
142
120
117
119
118
115
120
119
149
119
118
117
118
115
119
119
165
121
118
117
118
114
119
119
155
121
118
116
118
115
120
119
133
119
117
117
118
116
120
118
117
117
118
118
119
116
120
118
98
114
115
115
117
117
119
118
93
115
115
114
116
118
120
116
86
113
114
113
116
119
119
117
84
113
114
112
115
119
4
255
22
27
5
0
0
0
16
34
0
132
60
109
127
129
66
128
246
234
63
152
87
199
192
4
255
138
27
5
0
0
0
132
34
0
136
119
119
118
78
119
123
129
119
120
119
118
94
118
122
126
119
119
118
118
116
117
118
122
119
118
120
119
142
118
117
118
118
116
119
120
153
120
117
116
118
114
119
119
157
120
117
116
118
113
119
119
162
120
117
117
118
115
120
118
151
120
117
117
119
116
119
118
133
118
118
118
119
116
119
118
95
115
116
116
118
117
119
118
74
113
116
114
116
117
120
117
70
111
114
113
116
119
120
117
84
113
112
112
115
119
119
118
87
119
122
128
121
119
120
118
107
118
123
127
119
120
119
119
122
118
119
124
119
117
4
255
138
27
5
0
0
0
132
34
0
136
120
119
120
151
120
118
120
117
114
120
119
159
120
117
116
118
115
119
120
164
120
116
115
117
113
118
118
159
119
117
116
118
115
119
119
137
119
118
117
117
115
119
119
112
116
118
118
118
115
120
118
101
115
115
115
117
117
119
118
96
115
116
115
116
117
119
117
91
114
115
113
115
118
119
117
86
114
113
113
115
119
120
117
104
117
121
126
121
119
120
118
122
119
123
127
119
120
119
119
132
119
119
123
118
118
120
120
141
120
117
119
118
116
120
120
158
121
117
117
119
116
119
119
157
121
118
117
117
113
4
255
22
27
5
0
0
0
16
34
0
132
61
166
129
129
66
192
20
235
63
130
91
199
192
4
255
22
27
5
0
0
0
16
34
0
132
62
31
129
129
66
192
118
234
63
132
45
199
192
4
255
22
27
5
0
0
0
16
34
0
132
63
112
126
129
66
192
50
233
63
212
227
198
192
4
255
138
27
5
0
0
0
132
34
0
136
121
119
119
146
119
118
117
118
114
119
119
124
118
118
118
118
115
120
118
119
117
118
118
118
116
119
118
107
116
116
115
117
116
119
118
94
115
116
114
116
117
119
117
83
113
114
113
116
117
119
117
77
113
113
113
116
119
120
117
86
116
118
124
121
120
120
118
107
119
123
128
119
119
120
119
119
118
119
123
118
118
119
120
115
117
118
120
119
116
119
120
135
119
118
117
118
115
120
119
151
120
117
117
118
115
120
119
168
121
117
117
119
115
120
119
145
119
117
117
118
115
120
118
124
118
118
118
118
116
4
255
22
27
5
0
0
0
16
34
0
132
64
235
126
129
66
64
12
233
63
220
227
198
192
4
255
138
27
5
0
0
0
132
34
0
136
122
119
118
99
116
117
116
117
117
119
118
101
115
116
114
116
116
119
118
102
113
113
113
116
118
120
116
94
113
113
113
116
119
119
118
103
117
117
121
118
119
119
118
115
121
124
127
120
118
120
119
135
121
119
123
119
118
120
120
150
120
117
119
118
116
120
119
156
120
117
117
118
115
119
119
154
120
118
118
118
114
120
119
135
119
118
117
118
115
120
119
124
118
117
117
118
115
119
119
120
117
117
117
118
116
119
118
98
115
116
117
117
116
120
118
78
114
115
115
117
117
120
118
71
112
114
113
116
118
4
255
22
27
5
0
0
0
16
34
0
132
65
9
126
129
66
0
188
233
63
215
16
199
192
4
255
138
27
5
0
0
0
132
34
0
136
123
120
116
73
112
113
113
116
119
120
118
92
115
115
116
121
120
119
118
116
120
123
130
120
118
119
119
130
119
120
124
118
118
120
120
150
120
117
120
118
117
119
119
169
121
118
118
118
115
120
119
169
120
117
117
118
114
120
118
171
121
118
117
118
114
119
119
145
119
118
117
118
115
119
119
125
118
118
117
117
115
120
118
109
116
117
117
118
116
119
118
111
116
116
115
117
117
120
118
106
115
115
112
116
118
119
117
93
114
114
113
116
119
119
117
78
114
116
120
118
120
120
118
88
118
123
129
120
119
4
255
22
27
5
0
0
0
16
34
0
132
66
104
124
129
66
192
183
232
63
35
198
198
192
4
255
138
27
5
0
0
0
132
34
0
136
124
119
119
112
118
120
124
118
118
119
119
137
119
118
121
118
116
120
120
162
120
117
118
119
116
119
120
163
120
117
116
118
114
119
118
160
119
117
116
118
115
119
119
145
119
117
116
117
114
119
119
130
119
118
117
118
116
120
117
111
116
116
116
118
116
120
117
108
115
116
115
117
117
119
118
99
114
115
112
115
118
120
117
90
112
113
112
115
119
120
117
98
115
115
117
120
119
119
118
111
121
124
130
120
118
120
119
126
119
121
125
119
119
119
120
160
120
118
121
118
116
120
120
168
120
117
117
118
115
4
255
22
27
5
0
0
0
16
34
0
132
67
200
125
129
66
64
222
230
63
215
87
198
192
4
255
22
27
5
0
0
0
16
34
0
132
68
153
127
129
66
0
92
230
63
120
52
198
192
4
255
138
27
5
0
0
0
132
34
0
136
125
119
119
161
120
117
117
119
114
119
119
143
120
117
117
118
115
119
119
126
118
118
117
118
116
119
119
110
117
118
118
118
115
120
118
95
114
115
115
117
116
119
118
79
114
116
115
117
117
120
116
71
113
114
114
117
119
120
117
68
112
112
112
115
119
119
118
71
112
114
116
119
119
120
118
88
119
124
128
119
120
120
118
105
119
121
125
119
118
120
119
150
120
117
121
119
117
120
120
186
122
117
117
118
115
120
120
171
121
117
116
118
115
120
119
155
120
117
116
118
115
119
119
129
118
118
117
118
115
4
255
22
27
5
0
0
0
16
34
0
132
69
38
131
129
66
0
109
231
63
108
129
198
192
4
255
138
27
5
0
0
0
132
34
0
136
126
120
119
118
118
117
117
118
116
119
118
110
115
116
116
117
116
120
119
94
114
115
115
117
118
119
118
84
113
114
113
116
118
119
117
81
113
114
113
116
119
119
117
84
114
114
113
118
120
120
117
101
119
124
129
120
119
120
118
130
118
119
124
118
118
119
119
140
118
116
119
118
116
119
120
148
120
118
118
118
115
120
120
154
119
117
116
118
114
120
119
157
121
117
116
118
114
119
119
133
119
118
118
118
115
120
119
119
118
117
117
118
116
120
118
100
116
117
117
118
116
119
118
68
113
115
116
118
117
4
255
22
27
5
0
0
0
16
34
0
132
70
172
130
129
66
64
24
233
63
12
216
198
192
4
255
138
27
5
0
0
0
132
34
0
136
127
120
118
67
112
114
114
116
118
120
117
71
113
113
112
114
117
119
117
76
113
114
114
118
119
120
117
104
118
124
128
119
120
119
119
123
119
122
124
118
118
119
120
145
119
118
120
118
117
120
119
151
119
117
117
117
115
119
119
156
120
118
117
117
114
119
119
154
120
118
118
118
114
120
119
129
118
118
117
118
115
120
119
119
118
118
118
118
116
119
119
108
117
117
117
117
116
120
118
59
113
115
115
117
117
120
117
61
112
114
114
117
119
119
117
74
112
114
113
115
118
120
117
100
114
113
113
118
120
4
255
22
27
5
0
0
0
16
34
0
132
71
169
133
129
66
64
109
232
63
7
144
198
192
4
255
138
27
5
0
0
0
132
34
0
136
128
120
118
120
120
124
129
120
119
119
119
130
120
122
125
118
119
120
120
140
119
118
120
118
117
119
120
151
121
118
117
118
116
118
118
155
119
118
117
118
115
119
119
165
121
116
116
117
113
118
118
153
119
118
118
118
115
120
118
139
119
118
118
119
116
120
119
122
117
117
117
119
117
120
118
78
114
115
115
117
117
119
118
65
112
115
114
116
117
119
117
75
113
113
112
115
118
119
117
79
113
114
113
117
119
119
118
88
118
124
130
119
119
119
118
109
119
122
126
118
118
119
120
146
120
118
121
118
117
4
255
22
27
5
0
0
0
16
34
0
132
72
41
134
129
66
192
25
230
63
107
246
197
192
4
255
138
27
5
0
0
0
132
34
0
136
129
120
119
158
121
118
119
119
115
120
119
169
121
117
116
118
114
119
119
166
121
118
117
118
114
119
119
154
120
117
116
118
115
119
119
136
117
117
117
118
116
119
119
117
118
117
116
117
115
120
117
107
115
115
115
117
117
120
118
98
113
115
114
117
118
119
118
93
114
114
113
116
119
120
116
111
115
114
113
118
120
119
118
112
121
124
128
119
119
120
118
114
119
121
125
119
119
119
120
133
119
119
122
118
117
119
120
163
121
119
118
118
115
120
120
173
121
117
116
118
115
120
119
177
122
117
116
118
115
4
255
22
27
5
0
0
0
16
34
0
132
73
254
129
129
66
192
75
229
63
205
215
197
192
4
255
22
27
5
0
0
0
16
34
0
132
74
89
129
129
66
64
100
230
63
41
21
198
192
4
255
138
27
5
0
0
0
132
34
0
136
130
120
119
166
121
117
117
118
116
119
119
143
120
117
118
119
115
120
119
120
116
117
117
118
116
119
118
97
115
116
115
117
117
120
118
92
113
115
114
117
118
119
116
91
113
113
112
115
118
119
117
91
111
113
112
115
119
119
118
98
119
125
128
120
119
119
118
106
117
120
126
119
119
120
119
139
119
118
123
119
117
120
120
158
121
116
119
118
115
120
119
160
120
117
116
118
115
119
120
159
121
117
116
118
114
120
118
154
120
117
117
118
116
119
119
137
119
118
117
117
115
120
119
116
118
117
117
118
116
4
255
22
27
5
0
0
0
16
34
0
132
75
177
133
129
66
0
4
231
63
238
62
198
192
4
255
138
27
5
0
0
0
132
34
0
136
131
120
118
93
115
115
115
117
117
120
117
83
112
114
114
117
118
120
116
77
111
114
112
116
119
119
117
76
111
113
112
116
120
120
117
86
120
123
129
120
119
119
118
103
120
121
125
118
119
120
118
121
118
118
122
118
118
119
120
142
119
118
118
118
115
119
120
142
119
118
117
119
114
119
120
148
120
117
116
118
114
120
119
126
118
117
117
118
115
119
119
111
117
118
118
119
116
120
119
105
116
117
117
118
116
120
118
86
115
116
115
117
117
119
118
80
113
115
115
116
117
120
118
74
111
114
113
116
119
4
255
22
27
5
0
0
0
16
34
0
132
76
252
129
129
66
64
71
231
63
173
45
198
192
4
255
138
27
5
0
0
0
132
34
0
136
132
120
117
69
112
112
112
116
119
120
118
82
117
123
127
121
119
119
119
104
118
122
127
119
119
120
120
131
119
118
123
118
117
119
120
142
120
117
119
118
116
118
119
150
120
117
117
118
114
119
119
157
120
117
116
118
115
119
119
153
119
117
116
118
115
119
119
137
119
118
118
118
115
120
118
122
117
118
118
119
116
119
118
98
115
116
116
118
117
120
118
93
115
115
114
116
118
119
117
90
114
114
113
116
118
119
118
95
114
114
112
115
119
119
117
107
119
123
129
122
119
120
119
116
119
123
126
119
119
4
255
22
27
5
0
0
0
16
34
0
132
77
103
131
129
66
0
241
229
63
232
225
197
192
4
255
138
27
5
0
0
0
132
34
0
136
133
120
119
147
120
118
123
119
118
119
120
169
121
118
119
118
115
119
120
176
122
117
116
118
114
119
119
167
121
117
117
118
114
119
119
154
120
118
117
118
115
119
119
135
119
118
118
119
116
119
118
117
117
118
117
117
114
119
118
108
117
116
114
116
115
119
117
92
115
116
114
116
117
119
117
93
114
115
112
115
118
120
116
84
113
113
112
116
120
119
117
105
119
121
130
119
120
119
118
121
119
123
129
120
118
119
119
144
119
119
124
119
117
119
121
154
120
118
119
118
116
119
120
151
120
118
117
118
114
4
255
22
27
5
0
0
0
16
34
0
132
78
217
128
129
66
128
25
231
63
237
43
198
192
4
255
138
27
5
0
0
0
132
34
0
136
134
120
119
155
120
117
116
118
114
119
119
148
120
118
117
118
115
120
118
139
119
118
117
119
116
120
118
120
117
117
117
118
116
120
118
108
115
116
116
118
117
119
118
97
115
116
115
116
117
119
117
86
114
113
112
114
117
120
116
83
113
112
113
115
119
119
117
92
118
118
124
121
119
119
118
105
117
125
128
120
118
119
119
123
118
120
123
119
117
120
119
142
120
118
120
118
116
119
120
150
121
118
116
118
115
120
119
153
120
117
117
118
114
119
119
149
120
117
117
118
115
119
119
138
119
118
118
118
115
4
255
22
27
5
0
0
0
16
34
0
132
79
254
128
129
66
0
10
233
63
65
160
198
192
4
255
22
27
5
0
0
0
16
34
0
132
80
251
131
129
66
192
134
232
63
137
114
198
192
4
255
138
27
5
0
0
0
132
34
0
136
135
120
119
116
117
117
117
118
116
120
118
99
115
115
115
117
117
119
118
81
113
115
115
117
117
120
116
72
112
114
113
116
119
120
117
75
112
112
113
115
119
119
118
87
119
118
124
120
119
119
117
101
118
123
127
119
120
119
119
126
119
119
122
117
117
118
119
141
119
118
119
118
115
118
118
147
119
118
117
118
115
119
120
155
121
117
117
118
114
119
119
150
120
118
117
118
115
119
119
137
119
118
118
118
115
119
119
115
118
117
117
118
116
120
118
97
115
116
116
118
117
119
118
87
115
116
114
117
117
4
255
22
27
5
0
0
0
16
34
0
132
81
89
130
129
66
128
115
232
63
232
119
198
192
4
255
138
27
5
0
0
0
132
34
0
136
136
119
117
69
113
114
113
116
118
119
117
75
113
113
113
115
118
120
117
90
116
119
125
122
119
119
118
112
119
124
129
119
119
119
119
134
120
119
123
118
117
118
119
151
120
117
120
118
117
119
118
150
119
117
117
118
115
118
118
151
120
117
116
117
113
118
117
148
119
117
116
118
115
119
119
138
119
118
117
118
114
120
119
126
118
118
117
118
116
120
118
113
116
116
116
118
116
120
117
97
114
115
115
117
118
120
118
89
113
115
113
116
119
119
117
73
112
113
112
115
119
120
117
84
116
115
123
120
119
4
255
22
27
5
0
0
0
16
34
0
132
82
218
132
129
66
128
251
229
63
103
203
197
192
4
255
138
27
5
0
0
0
132
34
0
136
137
119
118
104
119
125
128
119
119
119
119
121
118
120
123
118
118
120
119
141
119
118
120
118
117
119
120
159
121
118
116
118
115
119
119
153
120
118
116
118
114
120
120
147
119
118
117
118
115
119
119
133
119
118
116
118
115
119
119
122
118
117
117
116
114
119
118
99
115
116
117
118
116
120
118
96
114
115
115
117
118
120
117
89
113
114
114
116
119
120
117
94
113
113
112
115
119
119
117
81
115
115
118
120
119
119
117
96
119
125
128
119
119
119
119
119
119
121
123
118
118
119
120
132
119
119
120
117
116
4
255
22
27
5
0
0
0
16
34
0
132
83
233
129
129
66
128
207
228
63
200
141
197
192
4
255
138
27
5
0
0
0
132
34
0
136
138
120
119
143
119
118
117
118
115
119
120
148
120
117
116
118
114
119
119
151
120
118
117
117
113
119
119
144
119
118
117
118
115
120
119
126
118
117
117
118
116
119
118
112
116
117
117
117
116
119
118
92
115
116
115
117
117
120
117
79
113
114
114
116
119
120
117
82
112
113
112
115
119
119
117
98
115
115
117
120
119
119
118
113
120
124
129
120
118
119
119
133
120
120
125
119
118
120
119
177
121
118
121
119
117
120
120
182
122
118
118
119
116
119
119
175
122
118
116
118
114
119
118
162
120
117
117
118
115
4
255
22
27
5
0
0
0
16
34
0
132
84
29
130
129
66
192
118
231
63
102
78
198
192
4
255
22
27
5
0
0
0
16
34
0
132
85
11
129
129
66
128
47
232
63
40
101
198
192
4
255
138
27
5
0
0
0
132
34
0
136
139
120
119
144
118
118
117
118
115
119
119
131
119
118
117
118
115
120
118
110
117
116
115
117
116
119
118
97
115
116
114
117
117
120
117
84
113
115
113
116
119
119
117
79
113
114
112
116
119
120
117
84
114
114
115
120
119
120
117
102
119
123
131
121
119
119
118
120
117
120
126
119
118
119
119
140
119
119
122
118
116
118
119
145
119
118
118
118
115
118
119
156
120
117
116
118
113
119
119
175
122
118
116
118
115
119
119
154
120
118
117
117
114
120
118
126
118
117
117
118
116
120
119
104
116
116
115
117
116
4
255
22
27
5
0
0
0
16
34
0
132
86
102
127
129
66
192
162
229
63
178
187
197
192
4
255
138
27
5
0
0
0
132
34
0
136
140
119
118
87
115
116
115
117
117
119
118
71
113
115
113
115
118
119
118
71
113
114
112
115
118
120
118
78
112
113
114
120
119
120
118
99
119
123
130
120
119
120
119
117
119
121
126
119
119
120
119
143
119
118
122
118
117
119
119
161
121
118
117
118
115
119
119
167
121
117
116
118
114
119
118
165
121
118
116
117
113
119
118
145
118
117
116
118
115
119
119
124
118
117
116
118
116
119
118
103
116
117
117
117
116
119
118
79
114
116
115
117
117
119
117
75
113
115
113
116
118
119
117
84
113
114
110
115
118
4
255
22
27
5
0
0
0
16
34
0
132
87
8
128
129
66
64
234
226
63
236
21
197
192
4
255
138
27
5
0
0
0
132
34
0
136
141
120
116
93
114
114
114
118
120
119
118
108
120
124
128
120
118
120
118
119
119
122
125
119
118
120
120
146
120
117
120
118
117
119
120
158
121
118
117
118
115
119
119
162
121
118
116
118
114
120
119
158
120
117
117
118
115
119
119
159
121
118
118
118
115
119
119
133
119
118
117
117
115
119
118
105
116
117
116
117
115
119
118
90
114
115
116
116
116
120
117
79
114
115
114
117
119
119
117
81
113
114
112
115
119
120
117
80
112
113
112
116
119
120
116
101
118
124
130
120
119
119
118
117
118
122
127
120
118
4
255
22
27
5
0
0
0
16
34
0
132
88
117
129
129
66
0
239
227
63
218
115
197
192
4
255
22
27
5
0
0
0
16
34
0
132
89
77
132
129
66
64
126
231
63
144
77
198
192
4
255
138
27
5
0
0
0
132
34
0
136
142
120
119
140
119
118
122
119
117
119
120
149
121
117
117
118
116
120
120
155
120
117
116
118
115
119
119
150
120
118
117
118
114
120
119
144
119
117
117
118
115
120
119
130
119
117
117
118
115
119
119
111
117
116
116
118
116
120
118
74
114
115
114
117
117
119
118
69
113
115
113
116
117
119
117
74
112
113
111
116
118
119
117
77
113
114
113
116
119
119
118
99
118
123
129
119
119
119
119
116
119
123
126
119
118
119
120
139
119
118
122
119
117
120
120
153
119
117
118
118
115
119
119
160
121
118
116
118
114
4
255
22
27
5
0
0
0
16
34
0
132
90
24
132
129
66
64
207
230
63
246
21
198
192
4
255
138
27
5
0
0
0
132
34
0
136
143
120
119
158
121
117
116
118
115
120
119
133
118
118
117
118
116
119
119
124
118
118
117
118
116
119
119
108
117
117
116
118
116
120
118
95
115
115
115
117
117
119
117
86
114
115
114
116
118
120
117
84
113
113
112
116
119
119
117
96
114
114
112
115
119
120
118
125
121
123
129
121
119
120
118
142
121
122
127
120
118
119
119
147
120
118
121
118
117
118
118
146
119
117
118
118
116
119
120
157
121
118
116
118
114
119
119
160
120
117
117
118
114
118
118
150
119
117
117
118
115
119
119
130
119
118
117
118
115
4
255
138
27
5
0
0
0
132
34
0
136
144
120
118
107
116
117
117
118
117
120
118
93
115
116
115
118
118
120
118
89
114
115
113
116
118
120
117
84
114
113
112
115
118
119
117
84
114
114
112
115
119
120
118
116
118
124
130
120
119
119
119
131
119
122
127
119
119
119
119
144
119
119
124
119
117
119
120
141
119
117
119
118
116
120
120
149
119
117
115
117
114
119
118
155
119
117
116
118
114
119
117
145
118
117
116
118
115
120
119
136
118
118
117
118
116
120
119
120
117
117
117
118
116
120
118
117
117
116
115
117
117
120
117
106
115
115
114
117
118
4
255
22
27
5
0
0
0
16
34
0
132
91
75
129
129
66
128
9
230
63
50
212
197
192
4
255
22
27
5
0
0
0
16
34
0
132
92
136
131
129
66
128
177
228
63
198
150
197
192
4
255
22
27
5
0
0
0
16
34
0
132
93
11
132
129
66
192
225
229
63
141
242
197
192
4
255
138
27
5
0
0
0
132
34
0
136
145
119
117
90
113
114
113
116
118
119
118
74
110
113
112
116
119
120
118
88
118
124
129
120
119
120
119
112
119
122
126
119
119
120
120
131
118
118
122
118
118
119
120
156
121
118
118
118
116
119
120
154
120
118
116
117
114
119
119
155
120
118
117
118
114
119
119
154
119
118
117
118
115
120
119
129
117
117
117
118
116
119
118
109
117
117
116
117
115
119
118
89
114
116
116
117
116
119
118
78
113
113
112
115
116
120
116
79
113
113
112
116
118
119
117
78
113
113
113
116
119
119
118
93
119
122
128
121
119
4
255
22
27
5
0
0
0
16
34
0
132
94
31
134
129
66
0
217
232
63
244
167
198
192
4
255
138
27
5
0
0
0
132
34
0
136
146
120
117
114
120
123
128
119
119
119
119
135
120
118
122
118
117
119
120
145
119
119
119
118
116
119
120
160
120
118
116
118
114
120
119
160
120
117
116
118
115
119
119
151
120
118
116
117
115
120
119
130
118
118
117
118
116
119
119
116
117
118
118
118
116
120
118
92
115
115
115
117
117
120
117
76
113
115
114
117
118
119
117
74
112
114
113
116
118
120
117
76
111
113
111
115
119
119
118
88
118
121
123
122
120
120
118
102
119
123
128
120
119
120
120
127
118
118
123
118
118
120
119
148
119
118
119
119
116
4
255
22
27
5
0
0
0
16
34
0
132
95
27
136
129
66
192
124
234
63
224
252
198
192
4
255
138
27
5
0
0
0
132
34
0
136
147
120
119
160
120
117
116
118
115
120
119
161
120
117
116
118
114
119
119
146
120
117
116
117
114
120
118
131
118
118
118
118
116
119
119
121
118
118
117
118
116
119
118
103
116
116
116
117
116
119
118
82
114
116
115
116
117
120
117
74
112
113
113
116
119
120
117
77
113
113
112
115
119
120
118
91
117
119
126
121
119
119
118
112
118
123
127
119
119
120
119
135
118
118
123
118
118
119
120
147
120
118
120
117
115
119
119
158
121
118
117
118
114
119
120
162
121
118
116
118
114
120
119
160
120
117
117
118
115
4
255
22
27
5
0
0
0
16
34
0
132
96
188
134
129
66
192
212
230
63
214
27
198
192
4
255
138
27
5
0
0
0
132
34
0
136
148
120
119
157
120
117
117
118
116
120
119
136
118
117
117
118
116
119
118
108
116
116
116
117
116
119
118
100
115
116
114
116
117
119
117
98
114
115
113
116
118
120
117
86
114
113
111
115
119
120
117
95
119
119
127
121
119
119
118
112
119
123
127
119
119
119
119
136
119
119
124
118
117
119
120
156
120
117
119
118
116
120
119
162
120
117
117
118
115
120
120
154
119
117
115
117
114
120
119
147
119
117
117
118
115
119
118
131
118
117
117
118
115
120
118
114
117
118
118
118
116
119
119
96
115
115
115
117
117
4
255
22
27
5
0
0
0
16
34
0
132
97
66
132
129
66
192
34
229
63
250
192
197
192
4
255
22
27
5
0
0
0
16
34
0
132
98
22
133
129
66
192
197
230
63
214
38
198
192
4
255
138
27
5
0
0
0
132
34
0
136
149
119
118
79
113
115
115
116
117
120
116
75
112
114
114
116
118
120
117
76
112
112
112
115
119
120
116
85
119
117
125
120
119
120
118
97
119
125
127
119
120
119
119
125
119
121
124
118
118
120
119
134
119
118
120
119
117
120
120
148
119
118
116
118
115
120
119
153
120
117
116
118
114
120
118
154
119
118
117
118
115
119
119
128
117
117
117
118
116
120
118
111
117
118
118
118
116
119
119
96
115
116
115
117
116
118
118
88
114
115
115
117
118
119
118
90
114
115
113
116
117
119
118
90
115
113
110
116
119
4
255
22
27
5
0
0
0
16
34
0
132
99
249
133
129
66
64
71
231
63
25
77
198
192
4
255
138
27
5
0
0
0
132
34
0
136
150
119
118
82
117
117
120
119
119
119
118
98
117
124
130
119
119
119
119
124
119
120
126
118
118
120
120
143
119
118
122
118
117
119
119
163
121
118
118
118
115
120
119
174
121
117
116
118
115
120
118
169
121
118
116
118
115
120
119
144
119
118
117
118
116
119
119
127
118
118
117
118
116
120
118
109
116
116
115
118
117
119
118
93
115
116
114
117
117
119
117
84
114
115
114
116
118
119
117
85
113
113
113
115
119
119
117
89
116
118
121
120
119
120
118
107
119
124
128
120
119
120
119
123
118
120
124
119
118
4
255
22
27
5
0
0
0
16
34
0
132
100
181
133
129
66
0
13
230
63
193
2
198
192
4
255
138
27
5
0
0
0
132
34
0
136
151
120
120
132
118
117
120
118
117
120
120
130
118
118
118
119
116
120
119
141
119
118
116
118
114
120
119
146
119
118
117
118
115
120
119
132
118
118
117
118
116
120
119
119
117
117
117
118
116
119
119
99
116
116
116
117
116
119
118
95
115
116
115
116
117
119
117
98
114
114
113
115
118
119
117
86
113
113
113
116
119
120
117
92
115
115
117
120
119
119
118
113
120
124
129
120
119
119
119
131
119
121
124
118
118
120
120
145
119
118
120
118
117
119
119
160
120
117
117
117
113
120
120
165
120
116
115
117
113
4
255
22
27
5
0
0
0
16
34
0
132
101
88
132
129
66
128
6
229
63
208
195
197
192
4
255
138
27
5
0
0
0
132
34
0
136
152
119
119
167
121
117
117
117
113
119
119
154
120
116
115
117
114
119
119
133
119
118
117
117
115
119
118
111
117
116
115
116
115
120
118
83
114
115
115
117
117
120
117
71
113
114
113
116
118
119
117
76
112
113
112
115
118
119
117
95
115
115
116
120
118
119
117
110
120
124
129
120
118
119
119
116
118
121
125
119
118
120
120
125
118
117
120
118
117
120
120
145
120
115
117
118
115
120
120
158
120
117
116
118
114
119
119
161
121
117
116
117
114
120
118
144
118
117
117
118
115
120
119
124
117
117
117
118
116
4
255
22
27
5
0
0
0
16
34
0
132
102
156
133
129
66
0
26
230
63
115
19
198
192
4
255
138
27
5
0
0
0
132
34
0
136
153
119
119
107
116
117
116
117
116
119
118
83
114
116
115
117
117
120
118
79
113
114
113
116
118
120
117
84
111
114
113
116
119
120
117
89
114
114
116
121
119
120
118
107
120
123
128
119
120
119
119
124
120
120
123
118
119
119
120
143
120
118
120
117
116
119
120
162
121
118
117
118
115
119
120
165
121
117
116
117
113
119
119
167
121
117
116
118
114
119
118
147
119
118
117
118
115
118
118
134
119
118
118
117
114
118
117
110
115
115
116
117
116
119
118
96
114
116
115
116
117
119
116
82
112
114
114
116
118
4
255
22
27
5
0
0
0
16
34
0
132
103
192
135
129
66
0
48
231
63
89
88
198
192
4
255
22
27
5
0
0
0
16
34
0
132
104
194
131
129
66
64
24
230
63
3
17
198
192
4
255
138
27
5
0
0
0
132
34
0
136
154
119
117
86
113
114
114
116
118
120
117
101
113
114
113
119
121
120
118
121
122
123
129
120
119
120
119
132
120
120
126
119
119
120
120
148
120
117
121
119
117
119
120
155
121
118
118
118
115
120
120
162
120
117
116
118
114
119
120
166
122
118
116
118
114
119
120
144
119
117
117
118
115
119
119
129
118
118
118
118
115
119
118
113
116
117
117
118
116
120
118
99
115
115
115
117
117
120
117
81
113
114
114
116
118
119
116
72
112
113
112
116
119
120
116
75
113
113
113
119
120
119
117
100
119
125
129
119
119
4
255
22
27
5
0
0
0
16
34
0
132
105
125
126
129
66
64
96
229
63
23
221
197
192
4
255
138
27
5
0
0
0
132
34
0
136
155
120
119
126
119
121
125
119
119
119
120
146
120
118
122
118
116
120
120
158
120
117
118
118
116
120
119
161
120
117
117
119
114
120
119
159
120
117
117
118
115
120
119
159
120
118
117
118
116
120
119
139
118
117
117
118
116
120
119
115
116
117
117
118
117
119
118
96
115
115
116
117
117
119
118
85
114
115
114
116
118
120
117
85
113
113
112
116
119
120
117
81
112
113
112
117
119
120
118
96
119
124
130
120
119
119
118
103
119
122
127
120
117
119
119
132
117
117
121
118
117
119
119
152
118
117
118
118
116
4
255
22
27
5
0
0
0
16
34
0
132
106
210
127
129
66
64
141
228
63
108
175
197
192
4
255
138
27
5
0
0
0
132
34
0
136
156
120
120
162
121
117
116
118
114
119
119
164
121
118
116
117
114
120
119
144
118
118
117
118
115
119
119
120
118
117
116
118
115
120
119
101
115
116
117
118
116
119
118
88
114
116
114
117
117
119
118
76
113
114
113
116
118
120
117
73
112
113
112
116
119
120
117
79
113
113
113
116
120
119
118
100
119
125
130
120
119
119
119
112
118
122
126
118
118
120
119
133
119
118
122
119
117
120
119
149
120
118
119
118
115
118
118
148
119
118
116
118
114
119
119
150
119
116
115
117
113
119
119
141
119
117
117
118
115
4
255
22
27
5
0
0
0
16
34
0
132
107
54
127
129
66
64
31
230
63
60
13
198
192
4
255
138
27
5
0
0
0
132
34
0
136
157
120
118
124
118
118
118
119
116
119
119
122
118
117
116
118
116
120
118
81
113
115
115
117
117
120
118
59
111
115
114
117
118
119
117
64
112
114
113
115
118
119
117
75
112
113
113
115
119
120
117
103
121
122
129
120
119
120
118
116
119
123
126
119
119
119
119
142
119
119
122
119
117
119
119
157
120
118
119
119
116
120
120
155
119
118
116
118
115
119
119
161
120
118
117
117
114
119
119
136
118
118
117
118
115
120
118
119
118
118
118
119
116
120
118
99
115
117
117
118
116
120
118
81
113
115
115
118
117
4
255
22
27
5
0
0
0
16
34
0
132
108
232
126
129
66
64
105
231
63
199
98
198
192
4
255
138
27
5
0
0
0
132
34
0
136
158
120
117
86
113
114
113
117
118
119
117
88
115
114
113
116
118
119
116
98
115
114
113
116
119
120
117
93
116
121
129
120
119
120
118
106
116
123
127
119
119
120
119
128
118
119
122
118
117
119
120
167
122
118
119
118
115
119
120
170
121
118
116
118
115
120
120
166
121
117
116
118
115
120
118
158
120
117
117
118
115
119
120
134
119
117
117
118
116
120
119
116
117
117
117
118
116
119
118
125
117
116
116
118
117
119
118
117
116
116
115
116
117
119
117
95
114
115
112
115
117
119
117
84
112
112
110
115
118
4
255
22
27
5
0
0
0
16
34
0
132
109
168
128
129
66
0
239
230
63
2
30
198
192
4
255
22
27
5
0
0
0
16
34
0
132
110
100
129
129
66
192
247
229
63
45
244
197
192
4
255
138
27
5
0
0
0
132
34
0
136
159
120
117
91
118
121
129
120
119
119
117
111
117
121
126
119
119
119
119
129
118
119
122
117
116
119
120
153
120
117
118
118
116
119
120
171
122
118
116
118
114
119
120
169
121
117
116
117
114
120
119
185
121
117
117
118
115
119
119
160
120
117
116
117
115
120
118
125
118
117
117
118
116
120
119
98
115
115
115
117
117
119
118
87
114
115
115
116
117
119
118
77
113
114
114
115
118
119
118
68
110
114
111
115
119
119
118
61
119
123
127
119
120
119
118
88
117
122
127
119
119
120
120
116
118
119
124
119
118
4
255
22
27
5
0
0
0
16
34
0
132
111
153
130
129
66
64
20
231
63
247
53
198
192
4
255
138
27
5
0
0
0
132
34
0
136
160
119
119
133
118
118
120
118
116
119
119
144
119
118
116
118
114
120
119
150
120
117
116
118
115
120
119
115
117
117
117
119
116
120
119
99
115
117
117
118
116
120
119
98
116
117
117
118
116
120
118
91
114
115
116
118
117
120
118
92
114
115
114
116
118
119
117
88
113
114
113
116
118
119
117
90
113
113
112
115
118
120
117
103
120
122
127
120
119
119
118
111
121
123
126
119
119
120
119
129
118
118
123
119
118
119
120
147
119
118
119
118
116
119
120
161
121
117
116
117
113
119
120
161
119
116
115
117
113
4
255
22
27
5
0
0
0
16
34
0
132
112
56
130
129
66
192
255
231
63
121
103
198
192
4
255
138
27
5
0
0
0
132
34
0
136
161
119
118
160
119
117
117
118
115
119
119
139
118
117
116
117
114
119
119
123
118
117
117
118
116
119
119
135
119
117
115
117
117
119
118
122
117
116
114
116
117
119
118
96
114
115
112
115
118
120
117
95
114
113
112
116
120
119
117
109
119
123
126
122
120
120
118
119
119
122
127
119
120
120
118
141
119
119
123
119
118
120
120
164
121
117
119
119
117
120
119
167
121
117
117
119
114
120
119
158
121
117
116
118
114
120
118
169
121
117
117
118
115
120
119
152
119
118
118
118
116
119
118
131
118
118
118
118
115
4
255
22
27
5
0
0
0
16
34
0
132
113
141
132
129
66
192
43
232
63
139
104
198
192
4
255
138
27
5
0
0
0
132
34
0
136
162
118
118
100
115
115
116
118
116
119
118
90
113
114
114
116
117
119
117
77
113
115
113
115
118
120
117
82
112
113
112
116
120
120
118
102
118
119
128
120
119
120
117
109
119
123
128
119
120
120
118
124
118
119
123
119
118
120
120
139
118
117
119
118
116
120
119
151
120
117
116
118
115
120
119
148
120
117
116
118
114
120
119
150
120
117
117
118
115
119
119
136
119
118
117
117
115
119
119
108
117
118
117
118
116
119
119
80
114
116
115
117
116
120
118
82
114
115
114
117
117
118
117
79
112
114
113
116
118
4
255
22
27
5
0
0
0
16
34
0
132
114
200
130
129
66
0
233
230
63
204
27
198
192
4
255
138
27
5
0
0
0
132
34
0
136
163
119
117
75
112
112
112
116
119
119
117
76
117
118
125
119
118
120
118
93
118
124
127
119
120
120
119
112
117
119
123
119
118
120
120
132
119
118
119
118
116
120
120
142
119
117
116
118
115
119
120
152
120
118
116
117
113
120
118
145
118
117
117
118
115
120
119
126
118
118
118
119
116
119
119
124
118
118
118
118
115
119
119
105
116
115
116
117
116
120
117
99
115
115
115
117
118
120
118
82
112
114
113
116
119
119
117
70
112
113
113
116
119
119
118
84
117
117
125
119
120
119
118
104
119
124
127
119
119
4
255
138
27
5
0
0
0
132
34
0
136
164
119
119
131
118
119
122
117
117
119
119
150
120
118
119
118
115
120
119
159
121
117
117
119
115
119
120
163
120
117
115
117
113
120
119
161
119
116
116
117
114
120
119
151
121
117
117
118
115
119
119
131
118
118
118
118
115
120
118
108
116
115
116
117
117
119
118
92
115
116
114
117
117
120
116
81
112
114
114
116
119
120
117
80
112
113
112
116
119
120
117
87
116
117
121
121
120
120
118
107
119
123
128
119
119
120
118
118
118
120
124
119
119
119
120
142
119
118
119
118
116
120
120
160
120
117
117
118
115
4
255
22
27
5
0
0
0
16
34
0
132
115
3
131
129
66
128
36
231
63
243
63
198
192
4
255
22
27
5
0
0
0
16
34
0
132
116
67
133
129
66
128
108
232
63
147
148
198
192
4
255
22
27
5
0
0
0
16
34
0
132
117
56
132
129
66
64
225
232
63
37
159
198
192
4
255
138
27
5
0
0
0
132
34
0
136
165
118
118
163
120
117
117
118
113
120
118
155
120
117
117
118
115
118
118
131
118
118
118
117
114
119
119
119
118
117
118
118
116
120
118
101
115
116
116
118
117
120
117
84
113
114
114
116
117
120
116
80
113
114
113
116
119
119
117
85
113
114
113
116
119
120
117
96
115
114
119
120
119
118
117
110
119
124
128
119
120
120
118
127
119
120
124
119
119
120
120
147
118
118
120
118
117
120
120
144
119
118
117
118
115
119
119
154
120
118
117
119
113
120
119
147
120
117
117
118
114
120
119
128
117
117
117
118
115
4
255
22
27
5
0
0
0
16
34
0
132
118
137
133
129
66
64
218
230
63
125
19
198
192
4
255
138
27
5
0
0
0
132
34
0
136
166
119
119
109
116
116
117
117
115
120
118
95
115
116
117
118
116
120
118
97
114
115
115
117
117
120
117
86
114
114
113
116
118
120
117
80
112
113
113
116
119
119
117
93
115
115
117
119
119
120
118
109
119
124
127
120
118
120
119
128
119
120
123
118
118
120
120
154
120
117
119
118
117
120
119
162
120
117
118
119
116
120
120
149
119
117
116
118
114
119
119
149
120
118
117
118
114
120
119
137
118
117
117
118
115
120
119
125
118
117
117
118
116
119
119
106
116
116
116
118
117
120
118
99
115
115
115
117
117
4
255
22
27
5
0
0
0
16
34
0
132
119
68
132
129
66
64
166
229
63
181
209
197
192
4
255
138
27
5
0
0
0
132
34
0
136
167
120
118
88
112
114
113
116
118
119
118
90
113
113
111
115
119
120
117
93
116
115
113
117
119
119
118
109
119
125
130
120
118
120
119
129
118
120
125
119
119
119
120
148
120
118
120
117
116
120
120
162
120
117
117
118
115
120
119
157
120
117
116
118
114
120
119
145
119
118
117
118
115
119
119
130
118
118
117
118
115
120
119
127
119
117
117
118
116
120
118
111
117
117
117
118
116
119
119
101
116
116
115
117
117
120
118
92
114
113
113
116
118
120
117
83
112
113
113
116
119
119
117
81
113
114
114
119
119
4
255
22
27
5
0
0
0
16
34
0
132
120
98
134
129
66
192
128
229
63
90
207
197
192
4
255
138
27
5
0
0
0
132
34
0
136
168
119
118
104
119
125
130
119
119
119
118
127
120
121
124
118
117
119
120
152
119
116
120
117
115
117
118
141
119
118
118
118
114
119
119
145
119
118
117
119
114
120
119
150
120
117
117
118
115
119
119
144
117
116
116
117
115
118
118
133
118
117
118
118
116
119
118
123
117
116
115
117
116
119
118
92
114
115
114
117
117
120
118
78
112
114
113
116
118
119
117
72
112
113
113
116
119
120
117
78
113
113
113
119
120
119
118
99
120
125
129
119
119
120
118
112
118
122
126
119
118
120
119
142
118
117
120
118
117
4
255
22
27
5
0
0
0
16
34
0
132
121
70
136
129
66
128
178
230
63
245
19
198
192
4
255
22
27
5
0
0
0
16
34
0
132
122
97
135
129
66
128
46
230
63
200
234
197
192
4
255
138
27
5
0
0
0
132
34
0
136
169
118
119
156
120
117
118
119
116
119
118
163
120
117
116
118
114
119
120
158
120
116
115
117
113
120
119
144
118
116
116
117
114
120
119
125
118
118
117
118
115
120
119
102
116
116
116
118
116
119
118
89
114
116
115
116
117
119
117
79
113
115
114
115
117
119
118
75
112
113
111
116
119
119
117
86
113
113
113
118
119
119
118
102
120
124
130
121
119
120
118
117
119
122
127
119
119
120
120
136
118
118
122
118
117
119
120
153
121
117
118
118
115
119
120
153
120
118
116
118
114
120
119
161
120
117
117
119
115
4
255
22
27
5
0
0
0
16
34
0
132
123
156
133
129
66
0
158
229
63
251
189
197
192
4
255
138
27
5
0
0
0
132
34
0
136
170
119
119
131
119
118
116
118
115
119
119
123
117
117
115
116
114
119
117
108
115
116
116
118
116
119
118
95
115
115
114
115
115
119
118
87
114
115
113
116
118
119
118
91
113
114
112
115
118
119
118
93
113
114
112
116
119
120
118
110
121
124
130
120
119
120
119
121
119
122
125
119
119
119
120
119
118
119
121
118
117
120
120
134
118
117
117
118
116
120
119
152
119
118
117
118
114
120
119
163
120
117
117
118
115
120
118
139
119
118
118
118
115
119
119
125
118
118
118
119
115
119
118
110
117
117
118
118
116
4
255
22
27
5
0
0
0
16
34
0
132
124
194
131
129
66
0
192
229
63
70
199
197
192
4
255
138
27
5
0
0
0
132
34
0
136
171
120
118
95
115
115
115
117
118
119
118
92
115
115
113
116
118
119
117
82
112
113
112
115
117
119
116
95
114
113
113
114
119
120
118
117
120
123
130
120
119
121
118
127
120
122
127
120
118
119
119
145
119
119
123
119
117
119
120
156
121
118
119
118
115
120
119
163
121
117
116
119
115
120
119
160
120
117
116
118
114
120
119
150
120
117
117
118
115
120
119
134
119
118
117
118
116
119
119
118
118
118
118
118
116
119
119
89
115
115
115
117
117
120
118
75
113
114
114
116
118
120
116
73
112
113
113
116
118
4
255
22
27
5
0
0
0
16
34
0
132
125
189
131
129
66
0
172
230
63
237
14
198
192
4
255
138
27
5
0
0
0
132
34
0
136
172
119
117
91
113
112
113
116
119
120
118
123
121
123
129
121
119
119
118
134
122
122
124
118
118
120
120
148
119
117
120
117
116
120
119
160
120
117
119
119
116
120
120
162
120
116
115
118
114
119
119
162
121
118
117
118
114
120
119
159
121
117
117
118
115
120
119
137
118
117
117
118
116
120
119
121
117
117
117
118
116
120
119
91
114
116
115
117
117
120
118
76
113
115
114
117
118
118
117
81
113
114
113
116
118
120
117
96
114
113
112
115
119
119
118
118
121
123
130
120
119
119
119
129
120
122
127
119
119
4
255
22
27
5
0
0
0
16
34
0
132
126
141
133
129
66
128
96
233
63
158
197
198
192
4
255
138
27
5
0
0
0
132
34
0
136
173
119
119
147
120
118
123
119
117
119
119
165
121
117
119
119
115
118
118
157
120
117
116
118
114
119
119
157
121
117
115
116
113
118
118
149
120
117
117
118
114
119
119
128
118
118
117
118
115
120
119
110
117
117
117
118
116
119
118
105
115
116
115
117
116
120
118
87
114
115
113
116
118
120
117
77
112
114
112
116
119
120
117
95
114
113
112
116
120
120
117
121
121
123
130
121
119
119
118
125
120
122
129
118
119
120
119
140
119
118
124
119
117
120
120
180
122
118
120
119
116
120
120
176
122
117
116
118
114
4
255
22
27
5
0
0
0
16
34
0
132
127
137
134
129
66
128
118
233
63
146
163
198
192
4
255
22
27
5
0
0
0
16
34
0
132
128
118
131
129
66
0
105
231
63
155
26
198
192
4
255
138
27
5
0
0
0
132
34
0
136
174
119
120
162
121
117
115
118
114
120
118
135
119
118
117
119
115
120
119
117
118
117
117
118
115
120
118
105
114
116
116
117
116
119
118
83
114
116
115
117
116
120
116
71
113
115
114
116
118
119
117
65
112
114
113
116
118
120
117
72
112
113
112
116
119
119
118
93
119
123
129
121
119
119
119
104
118
122
127
119
119
119
119
125
119
119
124
118
117
120
120
146
120
117
119
119
116
120
120
148
119
118
117
118
115
120
120
144
119
118
116
118
114
119
119
147
120
118
117
117
114
119
119
122
118
118
116
118
115
4
255
22
27
5
0
0
0
16
34
0
132
129
172
133
129
66
128
7
232
63
144
87
198
192
4
255
138
27
5
0
0
0
132
34
0
136
175
120
119
102
116
117
117
118
116
120
118
82
113
115
115
117
117
120
118
80
112
115
114
117
118
120
117
74
111
113
111
115
117
120
117
69
112
112
112
115
119
118
117
82
119
119
128
121
120
120
117
98
118
122
126
119
119
120
118
126
119
119
123
119
118
120
119
141
119
118
119
119
116
119
120
150
121
118
116
118
114
120
119
152
119
118
117
119
115
119
119
132
119
118
117
118
115
120
119
110
116
118
117
118
116
120
118
108
116
117
118
119
116
119
118
116
117
116
116
118
117
120
118
107
116
115
114
116
117
4
255
22
27
5
0
0
0
16
34
0
132
130
104
133
129
66
64
31
233
63
27
156
198
192
4
255
138
27
5
0
0
0
132
34
0
136
176
119
118
97
114
113
112
115
118
120
116
87
114
113
112
116
119
120
116
91
117
123
123
121
119
120
118
108
117
123
129
119
119
118
118
136
118
119
124
119
118
120
120
151
120
117
120
118
116
119
119
155
120
117
116
117
113
120
120
158
120
117
116
118
115
120
118
146
118
116
116
117
114
120
119
122
117
116
116
117
114
120
118
112
117
118
118
119
116
119
118
116
117
117
116
117
116
120
118
102
115
115
114
116
117
120
117
94
115
114
113
116
118
119
117
93
114
113
111
116
119
119
118
100
117
118
128
121
119
4
255
22
27
5
0
0
0
16
34
0
132
131
1
132
129
66
192
57
233
63
57
156
198
192
4
255
138
27
5
0
0
0
132
34
0
136
177
120
119
106
118
124
127
119
120
119
119
121
118
120
124
119
117
119
119
154
120
118
121
118
117
120
119
167
121
118
117
118
115
119
119
170
121
118
116
117
112
119
118
159
121
117
117
117
113
119
119
138
119
118
116
117
114
120
118
128
116
116
116
117
115
119
118
92
115
116
116
118
116
120
118
65
112
115
114
117
118
120
117
66
112
113
112
116
118
120
117
66
111
113
112
116
119
120
117
80
117
117
123
121
120
120
117
102
119
124
129
119
120
120
119
127
119
120
124
119
119
120
120
186
122
118
120
118
117
4
255
22
27
5
0
0
0
16
34
0
132
132
45
131
129
66
192
78
233
63
107
157
198
192
4
255
138
27
5
0
0
0
132
34
0
136
178
120
120
188
122
118
117
118
115
120
119
171
121
117
116
118
114
120
119
154
120
117
116
118
114
119
119
134
119
118
117
118
115
119
118
109
117
118
118
117
114
119
118
88
114
115
114
116
115
119
118
90
113
115
115
116
116
120
118
81
111
114
113
116
118
120
117
74
111
113
112
115
119
120
116
79
114
118
122
121
119
119
118
102
121
124
129
120
118
119
119
123
120
120
124
118
117
119
120
141
120
117
121
118
116
119
120
155
121
117
117
118
115
120
120
157
120
117
116
118
114
120
119
156
120
117
117
118
115
4
255
22
27
5
0
0
0
16
34
0
132
133
109
133
129
66
64
166
230
63
53
238
197
192
4
255
22
27
5
0
0
0
16
34
0
132
134
183
132
129
66
128
56
232
63
195
106
198
192
4
255
138
27
5
0
0
0
132
34
0
136
179
120
118
140
119
117
117
118
116
120
119
127
118
117
117
118
116
119
118
104
116
116
116
117
116
119
118
91
114
116
114
116
117
120
116
79
111
113
112
115
118
119
117
76
112
112
111
114
117
120
116
85
116
115
126
120
119
118
116
114
119
124
126
120
118
120
119
133
119
120
122
119
118
120
119
153
120
117
118
118
116
119
121
150
121
117
116
118
115
119
120
145
120
117
117
118
114
119
119
139
119
119
118
118
115
120
119
126
119
117
117
118
115
119
119
125
119
118
117
118
116
119
118
111
117
116
117
118
116
4
255
22
27
5
0
0
0
16
34
0
132
135
131
132
129
66
128
85
231
63
223
30
198
192
4
255
138
27
5
0
0
0
132
34
0
136
180
120
118
102
115
115
115
117
118
119
117
97
114
115
113
116
118
120
116
92
113
113
112
116
120
120
117
96
115
114
117
120
119
119
118
115
120
124
128
119
119
120
119
131
119
120
123
119
119
120
120
156
120
117
119
119
117
119
119
171
121
118
118
118
115
119
120
170
121
118
117
117
114
119
119
165
121
118
118
118
115
120
119
129
118
118
118
118
116
120
119
111
117
117
117
118
116
119
119
91
115
117
116
117
116
120
117
74
113
115
115
117
117
120
118
72
112
114
113
116
118
120
117
88
112
113
112
115
119
4
255
22
27
5
0
0
0
16
34
0
132
136
218
130
129
66
128
207
230
63
150
32
198
192
4
255
138
27
5
0
0
0
132
34
0
136
181
120
117
74
112
113
115
118
119
120
118
92
119
124
128
119
119
119
119
110
118
121
125
119
118
120
120
137
118
117
119
118
116
120
120
143
119
118
118
119
116
119
120
155
120
117
116
118
114
120
118
156
119
117
116
118
115
119
118
147
118
117
117
118
115
120
118
130
118
118
118
119
116
120
119
109
116
117
117
118
117
119
118
89
115
116
116
117
117
119
117
79
113
115
114
116
118
120
116
81
112
113
113
116
119
120
117
91
113
114
117
120
119
120
118
111
120
123
127
120
119
119
119
127
120
120
124
118
118
4
255
22
27
5
0
0
0
16
34
0
132
137
224
132
129
66
128
114
232
63
205
126
198
192
4
255
138
27
5
0
0
0
132
34
0
136
182
119
119
151
120
117
120
118
117
119
120
163
121
118
116
118
115
119
119
162
121
118
116
118
114
119
119
159
121
118
117
118
114
120
119
150
120
117
117
118
115
118
118
124
117
118
118
118
115
119
118
99
115
117
115
117
115
119
117
91
113
115
114
117
117
120
117
83
113
115
114
117
118
120
117
83
112
113
112
116
119
119
117
82
113
114
116
118
119
119
118
104
120
123
129
120
118
119
118
119
120
120
125
119
118
120
120
147
119
118
121
119
117
120
120
172
121
118
118
119
116
119
119
182
122
118
117
118
114
4
255
22
27
5
0
0
0
16
34
0
132
138
232
131
129
66
64
148
230
63
4
3
198
192
4
255
138
27
5
0
0
0
132
34
0
136
183
120
119
167
121
118
117
118
115
119
119
145
119
118
118
118
115
119
119
129
118
117
117
117
115
119
118
105
116
117
117
118
116
120
118
93
115
115
115
117
117
120
118
89
113
115
114
117
119
120
117
99
112
112
112
115
118
119
116
97
112
114
116
118
118
120
118
115
123
124
125
118
119
120
117
127
122
121
124
119
119
119
119
137
119
118
121
119
117
120
120
145
119
118
117
119
116
120
120
154
120
117
116
118
114
120
119
153
120
117
117
118
114
120
119
127
118
117
117
118
115
120
118
112
116
117
117
118
116
4
255
22
27
5
0
0
0
16
34
0
132
139
56
136
129
66
128
160
229
63
168
192
197
192
4
255
22
27
5
0
0
0
16
34
0
132
140
171
137
129
66
192
150
229
63
57
192
197
192
4
255
138
27
5
0
0
0
132
34
0
136
184
120
119
102
117
116
116
118
116
120
117
97
115
116
116
118
117
120
118
89
114
114
113
116
118
120
116
87
114
113
113
116
119
120
117
86
113
113
112
117
120
120
118
102
118
124
129
120
119
119
118
117
118
122
125
117
117
119
120
134
119
118
120
117
116
119
120
145
120
118
119
118
115
119
119
150
120
118
117
119
114
119
119
153
120
118
117
118
114
120
119
146
119
117
117
118
115
119
119
125
118
118
117
117
115
120
119
105
115
115
116
118
116
120
118
89
114
115
115
117
117
120
117
77
113
114
113
116
118
4
255
22
27
5
0
0
0
16
34
0
132
141
16
135
129
66
0
137
229
63
44
187
197
192
4
255
138
27
5
0
0
0
132
34
0
136
185
120
116
76
112
113
112
115
119
120
117
87
113
113
112
116
119
119
117
108
119
125
130
121
119
120
119
127
120
121
127
119
119
119
119
146
119
118
122
118
116
120
120
145
119
117
118
117
115
118
119
153
119
118
116
117
113
119
119
151
120
117
115
116
113
119
119
144
118
117
115
117
114
120
118
132
118
118
117
118
116
119
119
120
117
118
116
117
116
120
118
101
115
115
115
117
117
119
118
78
113
115
113
116
118
119
117
76
112
114
113
116
119
120
117
81
112
113
112
116
120
119
118
103
120
124
129
121
119
4
255
22
27
5
0
0
0
16
34
0
132
142
194
136
129
66
192
36
231
63
103
40
198
192
4
255
138
27
5
0
0
0
132
34
0
136
186
119
118
119
120
122
127
119
118
120
120
148
119
118
121
118
117
120
120
167
121
117
118
118
116
120
119
169
121
117
117
119
114
120
119
165
121
117
117
118
115
120
119
151
120
117
117
118
115
119
119
141
119
118
117
118
115
119
119
126
118
117
117
118
116
119
118
96
113
114
114
116
116
120
116
81
112
115
114
117
118
119
117
81
112
114
113
116
118
120
117
60
112
112
112
115
119
119
118
73
119
125
128
120
119
119
118
101
119
123
126
118
118
119
119
151
120
118
122
118
116
119
120
185
122
118
119
119
115
4
255
22
27
5
0
0
0
16
34
0
132
143
22
137
129
66
192
12
231
63
47
31
198
192
4
255
22
27
5
0
0
0
16
34
0
132
144
54
136
129
66
0
178
228
63
43
113
197
192
4
255
138
27
5
0
0
0
132
34
0
136
187
119
120
182
123
118
116
118
114
119
119
170
121
118
117
118
114
120
119
156
120
117
117
118
115
120
119
141
119
117
117
118
116
120
118
124
118
117
118
119
117
119
118
77
114
116
116
117
117
119
118
70
113
115
114
117
117
119
116
69
110
113
112
115
118
119
117
73
111
113
111
114
117
119
118
94
121
124
130
120
117
120
119
118
121
122
128
119
119
120
120
138
119
119
123
119
118
120
119
138
118
118
120
118
116
120
118
150
119
118
116
118
115
119
119
157
121
117
115
117
114
120
119
150
119
117
116
117
115
4
255
22
27
5
0
0
0
16
34
0
132
145
162
135
129
66
64
34
227
63
132
51
197
192
4
255
138
27
5
0
0
0
132
34
0
136
188
119
119
129
118
117
116
118
116
119
118
100
116
118
117
117
116
119
118
76
114
116
115
117
117
120
118
73
112
115
114
117
119
119
118
75
113
114
112
115
118
119
118
80
112
113
111
116
119
120
118
84
119
122
129
121
120
120
118
109
120
122
128
119
119
119
118
130
118
118
122
118
118
118
119
139
118
118
119
119
116
120
119
145
119
118
117
118
114
119
119
147
120
118
117
118
114
119
119
129
118
118
117
118
115
119
118
123
117
117
117
118
115
120
118
115
117
117
117
118
116
119
118
91
115
116
116
117
116
4
255
22
27
5
0
0
0
16
34
0
132
146
0
137
129
66
192
180
227
63
42
105
197
192
4
255
138
27
5
0
0
0
132
34
0
136
189
119
118
87
114
116
114
116
117
119
117
83
113
114
113
116
118
119
117
91
113
113
111
115
118
119
118
105
120
122
130
121
119
120
119
117
120
122
127
120
119
119
120
143
120
117
122
117
116
120
120
172
121
117
119
119
116
119
119
176
121
117
116
117
113
118
118
169
120
117
116
118
113
118
118
161
120
117
117
117
113
119
119
146
119
118
117
118
116
119
119
137
119
118
118
119
116
120
118
123
117
116
115
117
117
120
118
97
114
115
114
117
118
119
117
86
113
114
113
116
119
120
117
87
113
112
111
116
119
4
255
22
27
5
0
0
0
16
34
0
132
147
79
141
129
66
128
247
227
63
138
120
197
192
4
255
138
27
5
0
0
0
132
34
0
136
190
118
117
103
119
123
127
121
119
119
118
112
119
123
129
119
119
120
118
141
119
120
123
119
118
120
120
157
120
117
119
118
116
119
120
164
121
118
117
119
114
119
119
162
121
118
117
118
114
119
119
160
120
118
116
117
114
119
119
145
119
118
117
117
115
118
118
123
117
117
117
118
116
120
118
109
115
115
116
118
118
119
117
95
113
113
113
116
117
120
117
84
113
113
114
116
119
119
116
96
113
113
113
116
119
119
118
132
121
120
125
120
119
120
118
136
120
123
126
119
119
119
119
141
119
119
122
118
118
4
255
22
27
5
0
0
0
16
34
0
132
148
70
143
129
66
128
26
228
63
210
111
197
192
4
255
22
27
5
0
0
0
16
34
0
132
149
197
142
129
66
0
2
226
63
166
238
196
192
4
255
138
27
5
0
0
0
132
34
0
136
191
119
120
151
121
118
118
118
116
120
120
164
121
117
117
119
115
120
120
166
121
117
117
118
114
120
120
154
120
117
117
118
115
120
119
134
117
117
117
118
116
120
119
113
116
117
118
118
116
120
119
85
114
115
116
118
117
119
118
74
113
115
115
116
117
120
117
63
112
114
113
116
119
120
118
64
111
113
112
116
119
119
118
69
117
121
128
119
120
119
118
93
118
124
128
118
119
120
119
114
118
119
123
119
118
120
119
95
116
117
119
119
117
119
119
116
117
117
116
118
115
120
118
139
119
118
117
119
114
4
255
22
27
5
0
0
0
16
34
0
132
150
32
148
129
66
0
111
224
63
62
141
196
192
4
255
138
27
5
0
0
0
132
34
0
136
192
120
119
136
118
118
117
119
115
120
118
112
116
117
117
118
116
119
119
106
116
118
118
118
116
120
117
98
115
116
116
118
117
120
117
84
114
115
115
117
118
120
116
80
113
114
114
116
119
120
117
89
112
112
112
115
119
120
117
118
120
119
126
122
120
119
118
128
120
124
126
119
119
120
119
132
118
119
123
119
119
119
120
142
120
117
119
118
116
119
120
151
121
118
116
118
115
120
119
153
119
117
116
118
114
120
119
150
119
117
116
118
114
119
119
135
119
118
118
118
115
120
119
122
117
117
117
118
116
4
255
22
27
5
0
0
0
16
34
0
132
151
36
147
129
66
192
104
225
63
202
226
196
192
4
255
22
27
5
0
0
0
16
34
0
132
152
19
146
129
66
128
102
226
63
159
26
197
192
4
255
138
27
5
0
0
0
132
34
0
136
193
120
118
99
116
116
115
117
116
120
117
88
113
115
114
117
117
119
118
88
112
114
112
115
118
119
117
88
112
114
112
115
119
120
117
83
115
117
121
120
119
120
118
106
121
123
130
119
120
120
119
127
120
119
125
119
118
120
120
148
119
118
121
119
117
120
119
159
120
117
117
119
115
119
119
165
121
117
115
117
113
118
118
159
121
117
117
117
114
120
119
141
118
117
117
118
115
119
119
120
117
118
118
118
115
119
118
105
115
116
116
117
117
120
118
91
114
115
115
117
118
119
117
88
113
114
112
115
118
4
255
22
27
5
0
0
0
16
34
0
132
153
182
143
129
66
64
220
225
63
237
224
196
192
4
255
138
27
5
0
0
0
132
34
0
136
194
119
117
86
113
113
112
115
119
120
118
98
117
116
121
119
119
119
118
122
122
124
127
121
118
119
119
130
120
120
124
118
118
119
120
126
118
118
120
119
116
119
120
146
119
117
117
118
115
120
119
155
120
117
117
119
114
119
119
177
121
118
118
117
114
119
119
157
121
118
118
118
115
120
118
138
118
118
118
118
116
119
118
111
116
115
115
116
115
119
117
96
113
114
114
116
117
119
117
92
114
115
113
114
117
119
117
86
113
113
113
115
118
120
116
91
115
114
119
123
120
120
118
102
119
124
129
122
119
4
255
22
27
5
0
0
0
16
34
0
132
154
173
149
129
66
0
94
224
63
199
112
196
192
4
255
138
27
5
0
0
0
132
34
0
136
195
119
119
126
119
120
125
118
118
119
120
141
120
118
122
118
116
119
120
156
120
118
119
118
115
120
119
167
121
118
116
118
114
119
119
165
121
118
117
118
114
120
119
127
118
118
117
118
116
120
119
100
116
117
117
118
116
120
118
80
114
116
116
118
117
120
118
66
112
115
115
117
118
120
118
71
113
114
113
116
118
119
116
72
110
113
112
116
119
119
118
81
112
115
117
119
119
119
118
100
121
124
128
118
119
119
119
127
121
120
125
117
118
119
120
154
120
118
121
118
116
118
119
168
121
118
117
118
115
4
255
22
27
5
0
0
0
16
34
0
132
155
94
144
129
66
0
229
223
63
207
94
196
192
4
255
138
27
5
0
0
0
132
34
0
136
196
119
119
160
120
118
116
117
113
119
119
161
120
116
116
118
114
120
119
145
118
118
117
118
115
119
118
125
118
118
118
119
115
119
119
112
116
116
115
116
115
118
117
101
115
115
115
116
116
119
118
93
114
114
113
116
118
120
116
92
113
113
113
116
118
120
117
92
114
114
116
119
120
119
118
108
120
124
128
120
118
120
119
118
118
121
124
119
119
119
119
137
118
118
120
118
117
120
120
147
119
118
117
118
115
119
120
156
121
117
116
118
114
119
119
156
121
118
117
118
114
120
119
138
119
118
117
118
116
4
255
22
27
5
0
0
0
16
34
0
132
156
220
146
129
66
192
233
224
63
97
167
196
192
4
255
138
27
5
0
0
0
132
34
0
136
197
119
119
116
118
118
118
117
115
119
119
98
116
117
115
117
116
120
118
90
114
115
115
117
118
119
117
90
114
115
114
116
118
120
116
87
113
114
113
116
119
120
117
90
113
114
114
119
120
120
118
108
119
123
130
120
119
120
119
120
118
120
126
119
119
120
120
144
119
118
122
118
117
119
119
151
120
117
119
118
115
119
119
154
119
117
115
118
114
119
119
161
120
118
117
117
113
119
119
145
118
117
115
117
114
120
118
123
117
118
117
118
116
119
119
107
117
117
116
117
116
120
118
92
114
115
115
117
117
4
255
22
27
5
0
0
0
16
34
0
132
157
213
148
129
66
192
198
225
63
202
224
196
192
4
255
22
27
5
0
0
0
16
34
0
132
158
45
145
129
66
0
71
225
63
197
156
196
192
4
255
138
27
5
0
0
0
132
34
0
136
198
119
117
76
113
115
114
116
117
120
117
71
113
113
112
116
119
120
116
84
114
115
114
117
119
120
118
116
119
124
129
119
120
120
118
131
118
121
125
119
119
119
120
142
120
118
122
118
117
120
120
143
119
117
118
118
116
119
120
153
120
118
116
118
114
119
119
159
121
118
117
118
114
120
119
141
119
117
117
118
115
119
118
128
118
118
118
117
115
120
118
108
116
116
116
118
117
119
117
99
115
116
115
117
117
120
117
77
113
114
113
116
118
119
117
82
113
114
113
116
118
120
116
81
113
113
113
118
120
4
255
22
27
5
0
0
0
16
34
0
132
159
67
151
129
66
192
87
223
63
165
31
196
192
4
255
138
27
5
0
0
0
132
34
0
136
199
119
117
106
119
124
130
120
118
120
118
124
119
122
126
119
119
120
120
147
119
118
122
118
117
119
121
155
121
118
118
118
115
119
120
155
120
118
116
118
114
119
120
163
121
118
116
117
114
120
120
166
121
117
117
118
116
120
119
136
118
118
117
118
116
119
119
111
117
118
117
117
116
120
118
97
114
115
116
117
117
120
118
86
113
115
114
117
119
120
117
91
113
113
112
116
119
120
116
90
113
113
112
117
119
119
117
109
120
124
130
119
119
119
118
123
120
121
126
119
118
119
119
154
120
118
122
119
117
4
255
22
27
5
0
0
0
16
34
0
132
160
223
150
129
66
192
172
224
63
250
144
196
192
4
255
138
27
5
0
0
0
132
34
0
136
200
119
120
150
121
117
117
118
115
120
120
153
120
117
116
118
114
120
120
152
119
118
117
118
115
120
119
154
119
118
117
118
116
120
119
124
117
117
118
118
116
120
118
110
117
117
117
118
117
120
118
95
115
115
115
117
118
120
117
91
114
115
114
116
118
120
117
87
113
113
113
116
119
119
117
96
114
114
113
115
119
119
117
111
120
123
129
121
119
119
118
117
119
123
126
119
118
120
120
134
119
117
121
118
117
119
119
151
120
118
118
118
115
120
119
157
121
118
117
119
114
119
120
155
121
117
117
118
114
4
255
22
27
5
0
0
0
16
34
0
132
161
81
150
129
66
64
119
223
63
103
59
196
192
4
255
138
27
5
0
0
0
132
34
0
136
201
120
119
149
119
118
117
118
115
120
119
141
120
117
117
118
116
120
119
115
117
117
117
118
116
119
118
93
115
116
115
117
117
119
118
84
114
116
114
116
118
119
117
78
113
114
113
115
118
120
117
77
113
113
112
116
119
120
118
85
118
123
129
120
119
120
118
91
116
121
126
119
119
120
120
133
118
118
122
118
117
119
120
152
120
118
119
118
115
119
119
159
121
118
116
117
113
119
120
160
119
117
115
117
113
119
119
148
119
117
117
118
115
119
119
130
118
118
118
117
115
119
119
112
117
118
117
118
116
4
255
22
27
5
0
0
0
16
34
0
132
162
74
151
129
66
192
232
222
63
66
29
196
192
4
255
138
27
5
0
0
0
132
34
0
136
202
120
119
103
116
116
115
117
117
120
118
94
115
115
112
115
116
120
117
87
113
114
113
116
119
120
117
79
112
113
113
116
119
120
118
98
119
124
129
120
119
120
119
113
119
122
125
119
119
119
119
130
118
119
123
118
117
120
119
141
119
118
119
119
116
119
119
154
120
117
116
118
114
120
119
158
119
117
116
118
114
119
119
149
120
117
116
117
115
120
118
132
118
118
118
119
115
119
119
116
116
117
117
118
116
119
117
83
113
115
115
117
117
120
118
72
112
114
114
117
118
120
117
72
112
113
113
116
119
4
255
138
27
5
0
0
0
132
34
0
136
203
119
117
83
113
113
112
116
119
119
117
97
118
123
130
120
118
120
119
104
117
122
129
119
119
119
120
132
119
119
123
118
117
120
119
149
120
118
120
119
116
119
119
157
121
118
117
118
114
119
119
157
121
117
116
118
114
119
119
177
122
118
117
118
115
120
119
147
120
117
116
118
116
120
119
121
117
117
117
118
117
120
119
129
118
116
115
118
118
120
117
111
116
115
114
117
118
120
116
86
112
112
111
115
118
119
117
77
112
112
110
114
118
120
118
92
117
122
128
120
119
120
118
115
118
123
128
119
120
4
255
22
27
5
0
0
0
16
34
0
132
163
253
148
129
66
192
48
224
63
62
105
196
192
4
255
22
27
5
0
0
0
16
34
0
132
164
81
149
129
66
192
81
222
63
74
237
195
192
4
255
22
27
5
0
0
0
16
34
0
132
165
121
151
129
66
64
7
222
63
252
219
195
192
4
255
138
27
5
0
0
0
132
34
0
136
204
119
120
135
120
117
123
118
117
120
120
154
120
117
119
118
116
119
119
155
120
117
117
118
114
120
119
148
119
118
116
118
114
120
119
159
121
117
116
118
115
120
119
131
117
117
117
118
115
119
119
110
117
118
118
118
115
119
118
82
114
116
116
116
116
120
118
72
112
114
114
116
118
120
117
73
112
113
112
115
118
120
117
80
112
112
112
116
119
119
118
95
119
122
128
120
119
119
119
106
118
124
125
117
117
119
119
123
118
119
122
119
117
119
119
151
121
118
119
118
115
119
120
148
120
117
116
117
113
4
255
22
27
5
0
0
0
16
34
0
132
166
37
154
129
66
0
3
224
63
199
103
196
192
4
255
138
27
5
0
0
0
132
34
0
136
205
119
119
145
120
117
117
118
114
120
119
135
119
118
118
119
116
120
119
125
118
117
117
118
116
120
118
110
117
118
118
119
116
120
117
68
113
115
116
118
117
119
118
49
112
115
114
116
117
120
116
56
111
114
113
116
118
120
117
61
112
112
112
116
119
120
117
65
116
122
127
121
119
120
118
96
118
122
126
119
119
120
118
125
118
118
123
119
118
119
121
154
119
117
119
118
116
118
119
163
120
117
116
118
114
119
119
165
121
117
116
117
114
119
120
158
121
117
116
117
114
119
119
142
120
117
117
118
115
4
255
22
27
5
0
0
0
16
34
0
132
167
241
152
129
66
192
65
223
63
142
43
196
192
4
255
138
27
5
0
0
0
132
34
0
136
206
120
119
119
117
117
118
118
116
120
118
100
115
116
115
118
118
120
117
90
114
115
114
117
119
120
117
86
114
113
112
115
119
119
117
95
114
113
112
115
119
120
118
86
118
120
128
121
120
119
118
108
120
124
128
119
119
119
119
142
120
119
124
118
118
120
120
137
118
118
119
118
116
119
119
156
120
117
117
118
115
120
120
162
120
117
116
118
114
119
119
154
120
119
116
118
114
120
118
132
118
118
117
118
116
119
119
118
117
116
116
117
115
118
117
98
114
115
115
117
116
120
118
85
114
115
114
117
118
4
255
22
27
5
0
0
0
16
34
0
132
168
181
151
129
66
0
96
221
63
111
180
195
192
4
255
138
27
5
0
0
0
132
34
0
136
207
119
118
98
115
115
112
115
118
119
117
99
115
114
113
115
119
119
118
111
119
118
125
121
119
120
118
124
118
123
127
120
119
119
119
143
120
119
124
118
118
119
120
160
121
118
120
117
116
120
119
165
121
118
117
119
115
119
119
167
121
117
117
118
114
120
118
162
120
117
117
118
115
120
118
143
118
117
116
117
115
120
118
130
118
118
118
119
116
120
118
100
116
116
116
118
116
120
118
77
113
115
114
117
118
119
117
75
114
115
112
115
117
118
116
78
113
113
112
115
119
119
118
96
116
116
125
120
119
4
255
22
27
5
0
0
0
16
34
0
132
169
53
154
129
66
0
46
221
63
95
176
195
192
4
255
22
27
5
0
0
0
16
34
0
132
170
210
154
129
66
192
91
221
63
179
189
195
192
4
255
138
27
5
0
0
0
132
34
0
136
208
120
118
114
116
122
127
119
119
119
119
128
118
118
123
117
117
119
120
148
120
117
119
118
116
119
120
162
120
117
115
117
114
119
119
155
120
118
116
117
113
118
118
158
120
117
116
118
115
119
119
143
120
117
117
118
115
119
119
122
117
118
118
119
116
120
117
94
115
116
116
118
117
119
118
85
114
115
115
117
117
119
117
86
114
115
114
115
118
120
117
88
113
113
112
116
120
120
118
91
118
114
121
119
120
119
118
103
118
124
127
119
119
120
119
121
116
120
122
119
118
119
120
110
117
119
119
118
116
4
255
22
27
5
0
0
0
16
34
0
132
171
46
156
129
66
64
134
220
63
128
134
195
192
4
255
138
27
5
0
0
0
132
34
0
136
209
120
120
132
119
118
117
118
115
120
120
149
119
118
117
119
115
120
119
132
118
118
118
118
115
119
118
116
117
118
118
118
115
120
119
112
117
117
117
118
116
120
118
127
118
116
117
118
117
120
117
124
117
116
115
117
118
119
118
109
115
114
113
115
118
120
118
92
113
112
112
115
119
119
118
91
117
116
121
120
119
120
118
113
118
124
129
119
120
119
119
139
120
120
125
118
118
119
120
157
120
117
119
118
115
120
119
171
121
117
118
119
115
119
120
168
120
116
114
117
113
120
118
163
120
117
116
118
114
4
255
22
27
5
0
0
0
16
34
0
132
172
227
157
129
66
0
185
221
63
20
218
195
192
4
255
138
27
5
0
0
0
132
34
0
136
210
119
118
145
118
117
116
118
115
120
119
134
119
118
117
118
116
120
118
120
116
116
115
118
117
119
118
94
114
116
115
116
117
119
118
86
113
114
113
115
118
119
118
91
113
113
111
116
119
120
116
127
119
115
116
119
120
120
118
129
121
123
129
119
119
119
119
134
120
120
125
119
118
120
120
156
120
117
120
118
117
120
119
165
121
118
118
119
115
119
119
164
121
118
117
119
114
119
119
181
