*** FIRST HEADER ***
4
255
6
127
6
0
182
253
0
4
255
10
27
5
0
0
0
4
30
0
0
79
*** OTHER HEADER ***
4
255
138
27
5
0
0
0
132
34
0
136
0
*** DATA ***
119
119
119
118
117
125
121
117
119
119
120
117
117
120
119
117
119
119
125
118
117
117
119
115
119
120
130
118
118
117
119
114
119
119
129
118
118
117
119
116
119
119
133
119
118
118
118
116
120
119
128
118
118
117
118
116
119
119
119
118
118
118
118
117
120
119
108
117
118
116
116
117
120
118
105
116
116
114
115
118
120
118
108
117
118
114
114
118
120
117
108
116
118
114
115
119
120
118
110
116
117
127
120
118
120
119
114
116
116
124
121
118
119
120
121
117
117
121
120
116
120
120
128
117
117
117
119
115
*** OTHER HEADER ***
4
255
138
27
5
0
0
0
132
34
0
136
1
*** DATA ***
119
119
131
118
118
117
119
115
119
119
131
118
117
117
119
116
119
119
129
117
117
117
118
116
120
119
119
117
117
117
118
116
119
119
116
117
118
118
118
116
120
118
111
117
117
116
117
117
120
118
110
117
117
114
115
118
120
118
110
117
118
114
115
119
119
117
113
118
120
114
114
119
119
118
119
118
118
127
118
118
119
119
121
117
118
125
121
117
119
119
127
118
118
121
121
116
119
120
133
119
118
118
119
115
119
119
132
118
118
117
120
114
119
119
129
118
118
118
119
115
119
119
129
118
118
117
118
116
4
255
138
27
5
0
0
0
132
34
0
136
2
119
118
123
117
118
118
119
117
119
118
119
118
118
118
119
117
120
118
113
116
117
116
117
117
120
117
110
116
117
115
116
118
119
117
108
117
117
114
115
119
118
117
107
117
119
114
115
119
119
118
109
117
119
128
120
118
119
118
111
117
118
125
121
117
120
119
116
117
117
122
121
117
119
120
125
118
118
118
120
114
120
119
128
118
117
116
118
114
119
119
125
118
118
118
119
115
119
119
125
118
118
118
118
115
120
119
120
117
116
117
118
116
118
118
113
117
118
118
119
117
120
119
108
117
117
116
117
117
4
255
138
27
5
0
0
0
132
34
0
136
3
120
118
105
117
118
115
115
117
120
118
105
116
118
114
114
118
119
118
108
117
119
114
114
119
119
118
113
117
118
128
118
120
120
119
111
116
117
125
122
118
120
119
120
117
117
120
119
117
119
118
125
118
117
118
120
115
120
119
131
118
117
116
119
115
120
118
130
118
118
118
119
116
120
119
125
118
118
117
119
116
120
119
123
117
117
117
118
116
119
119
120
117
118
118
118
116
119
118
110
116
117
116
117
117
119
117
107
117
117
115
116
117
120
117
103
116
117
114
115
119
119
117
105
117
119
114
115
119
4
255
138
27
5
0
0
0
132
34
0
136
4
119
118
111
118
119
127
117
118
119
118
119
118
118
126
122
118
120
120
128
117
117
121
119
117
120
120
132
119
117
118
119
115
120
120
133
118
117
116
119
115
120
119
139
119
118
116
118
115
120
119
135
119
118
117
118
115
120
119
129
118
118
117
118
116
120
119
123
118
118
118
119
117
119
118
119
118
118
117
118
118
120
118
113
116
117
115
116
118
120
118
114
117
117
114
115
118
119
118
115
118
119
114
114
118
120
118
117
117
118
126
118
119
119
118
116
117
117
126
122
118
119
119
122
117
117
122
120
116
4
255
138
27
5
0
0
0
132
34
0
136
5
120
119
128
117
117
118
119
116
119
119
128
118
118
117
119
114
119
119
126
118
118
118
119
115
120
119
132
118
117
117
118
115
120
118
128
117
117
117
118
116
119
118
121
117
118
118
119
117
120
118
110
117
117
116
117
117
119
118
107
117
117
115
115
117
120
117
104
116
118
114
115
119
119
117
109
118
120
114
114
119
119
117
111
117
118
127
118
120
120
118
115
116
117
126
121
118
120
119
123
118
117
122
119
117
119
120
133
119
118
119
120
115
119
119
134
119
118
117
119
114
119
119
133
118
117
117
119
115
4
255
138
27
5
0
0
0
132
34
0
136
6
119
119
128
118
117
118
118
115
119
118
123
118
118
118
119
116
119
119
118
118
118
118
118
116
119
118
109
116
117
116
117
118
119
118
104
116
117
116
116
117
119
117
102
117
117
114
115
118
120
118
103
117
118
113
114
119
120
118
110
117
118
127
117
119
120
118
118
118
118
126
121
118
119
119
124
118
118
123
121
116
119
120
126
119
118
119
120
115
119
119
128
118
118
117
120
114
119
120
127
119
118
116
118
114
119
119
126
118
118
117
119
116
120
119
125
118
117
117
118
116
120
119
122
117
117
117
118
116
4
255
138
27
5
0
0
0
132
34
0
136
7
119
119
115
117
118
117
118
117
119
118
105
116
118
116
117
117
119
118
106
117
118
115
115
118
119
117
104
116
118
114
115
119
120
118
107
116
118
123
116
118
119
119
110
117
118
126
120
117
120
119
118
117
117
123
120
117
120
120
125
118
117
119
119
116
120
120
126
118
117
117
119
115
120
120
132
119
117
117
119
116
119
119
132
119
118
117
118
115
119
119
127
119
118
118
118
115
120
118
115
117
118
118
119
117
120
118
107
117
117
116
116
116
119
118
103
117
118
116
116
117
120
117
107
116
116
113
114
118
4
255
138
27
5
0
0
0
132
34
0
136
8
120
117
108
118
117
113
114
118
119
117
110
117
119
123
117
119
120
118
120
117
117
126
120
118
119
118
124
117
117
123
121
117
119
120
131
119
118
119
120
115
120
119
136
118
117
117
119
115
120
119
138
119
118
116
118
115
119
119
141
120
117
117
118
115
119
119
137
119
118
117
118
115
119
118
133
118
118
118
119
117
120
119
121
118
118
116
117
117
120
119
111
117
117
115
116
117
120
118
109
116
117
114
115
118
120
118
107
116
117
113
114
118
120
118
112
117
118
121
115
118
119
118
119
118
117
126
123
119
4
255
138
27
5
0
0
0
132
34
0
136
9
119
119
121
118
118
123
119
117
120
120
127
119
117
119
119
116
120
120
129
117
117
116
119
115
119
119
130
118
118
117
119
115
120
119
130
117
117
117
118
115
119
119
124
118
118
118
119
116
120
119
123
118
118
117
118
116
119
118
113
117
118
117
118
117
119
118
108
117
118
117
117
117
120
118
105
117
118
114
115
118
120
117
105
117
118
114
115
120
120
118
108
117
118
119
116
119
119
119
114
117
117
127
123
118
119
119
119
117
117
123
120
117
119
119
125
117
117
119
119
116
119
119
126
118
117
117
119
115
4
255
138
27
5
0
0
0
132
34
0
136
10
120
119
133
118
117
117
118
115
119
119
133
119
118
117
118
115
119
119
126
118
118
118
119
116
120
119
115
117
117
117
118
116
120
119
109
117
117
116
117
117
120
118
107
117
117
115
116
117
119
118
109
117
117
114
115
118
119
118
113
118
118
114
114
118
119
117
113
117
119
119
116
119
119
117
116
117
118
128
123
119
120
119
120
117
117
124
120
118
120
119
129
118
118
121
120
116
119
119
133
119
118
118
119
115
119
119
133
119
118
117
119
115
119
119
135
119
118
117
119
116
119
119
129
118
118
117
118
115
4
255
138
27
5
0
0
0
132
34
0
136
11
119
119
116
117
118
118
119
116
119
119
107
117
118
117
117
116
119
118
108
117
118
116
117
118
119
118
110
117
118
114
115
118
119
117
109
117
117
114
115
119
120
117
112
116
118
118
116
119
120
118
121
117
117
127
120
118
120
119
125
118
117
123
120
117
119
120
126
119
117
120
118
116
119
120
125
118
118
117
119
114
120
119
122
117
117
116
118
115
119
119
132
118
118
117
119
116
119
119
130
118
118
118
119
116
119
119
120
117
118
118
119
116
119
119
116
118
118
116
117
116
119
118
113
117
118
116
117
117
4
255
138
27
5
0
0
0
132
34
0
136
12
120
118
112
116
117
114
115
118
119
117
108
118
119
114
114
118
119
118
110
118
119
115
115
118
119
118
115
117
117
128
120
118
120
119
117
117
117
124
120
117
119
120
130
118
118
121
120
115
120
120
136
118
117
117
119
115
119
119
134
119
118
117
119
115
120
120
128
117
117
117
118
115
120
119
121
117
118
117
118
115
120
118
121
117
118
118
119
117
119
119
117
118
118
118
118
117
120
118
113
117
117
116
117
118
119
118
108
117
118
114
115
118
119
118
103
117
118
114
114
118
119
117
103
116
118
115
115
119
4
255
138
27
5
0
0
0
132
34
0
136
13
119
118
109
116
117
127
123
119
120
119
112
116
116
124
121
118
120
120
119
117
117
120
119
117
119
120
126
119
118
117
119
115
119
120
128
118
118
117
118
114
119
119
132
119
118
117
118
115
119
119
131
118
117
117
118
116
119
118
126
118
118
118
119
117
119
118
119
118
118
117
118
117
119
118
109
116
117
116
117
118
120
117
105
117
117
115
116
119
120
118
104
116
118
114
115
119
119
118
114
118
119
114
114
118
119
118
114
116
117
128
119
119
119
119
118
118
118
124
120
117
120
120
124
118
117
120
119
117
4
255
138
27
5
0
0
0
132
34
0
136
14
119
120
134
119
118
118
119
115
120
120
133
118
117
116
119
115
120
119
130
118
117
117
118
115
119
119
128
118
118
117
118
115
119
119
123
118
118
118
118
115
120
118
113
116
117
117
118
117
120
118
112
117
118
116
116
117
119
118
111
118
117
114
115
117
120
118
106
116
117
113
114
118
120
117
107
117
119
114
115
119
120
118
112
117
118
127
118
119
120
119
122
118
118
125
121
118
120
120
126
118
117
120
119
117
119
119
129
118
118
118
120
115
120
120
137
118
117
116
119
115
120
118
135
119
118
117
119
116
4
255
138
27
5
0
0
0
132
34
0
136
15
120
119
128
118
117
117
118
116
119
119
121
118
118
117
118
116
119
119
116
117
118
118
119
117
119
118
108
117
118
117
117
117
120
118
106
116
117
115
116
118
119
118
109
117
117
114
114
118
119
117
107
117
118
114
115
119
120
118
110
116
117
127
121
119
119
119
117
118
117
125
121
117
119
120
123
118
118
121
120
116
120
120
131
118
117
117
118
115
119
119
135
119
118
117
119
115
120
119
129
118
118
117
118
115
119
119
126
118
118
117
118
115
119
119
122
118
117
117
117
115
119
118
116
117
117
117
118
116
4
255
138
27
5
0
0
0
132
34
0
136
16
120
118
106
116
118
116
117
118
119
118
109
117
118
115
115
117
120
117
107
116
118
114
115
119
120
117
107
117
119
112
114
118
120
118
115
117
117
127
120
118
120
119
121
117
116
125
121
118
120
120
124
117
117
121
119
117
120
120
128
117
117
118
119
116
119
119
127
118
117
117
119
115
119
119
122
118
118
117
119
115
120
120
123
117
117
117
118
116
120
120
124
118
118
118
119
117
120
119
121
116
117
117
118
117
119
119
118
118
117
116
116
116
119
119
116
118
118
115
115
117
119
118
109
117
118
114
115
118
4
255
138
27
5
0
0
0
132
34
0
136
17
119
118
107
117
118
113
114
118
119
118
109
117
118
128
118
119
119
119
113
117
118
125
121
117
119
119
124
117
118
122
120
117
119
119
133
119
118
119
120
115
119
119
132
118
117
117
119
115
119
119
134
119
118
117
118
114
120
118
129
118
118
118
119
116
120
118
123
117
117
117
118
116
120
118
115
116
117
117
118
116
120
119
110
116
117
116
117
117
119
118
107
117
119
115
116
118
119
118
108
117
116
113
114
118
120
118
107
117
119
113
114
119
119
118
109
117
118
128
118
120
120
119
117
117
117
125
121
118
4
255
138
27
5
0
0
0
132
34
0
136
18
119
119
124
118
117
122
120
117
119
119
128
118
118
119
119
115
119
119
126
118
118
117
119
115
120
118
128
118
118
117
119
116
120
119
127
118
117
117
118
115
119
119
125
118
118
118
118
115
120
118
119
117
117
118
118
117
120
118
115
116
117
116
117
117
119
118
111
118
119
115
115
117
119
117
106
116
117
114
115
119
119
118
113
118
118
113
114
118
120
118
114
116
117
126
118
119
119
118
114
117
118
126
122
118
120
120
118
118
116
122
119
118
119
120
127
119
118
119
119
116
119
120
133
118
117
116
119
115
4
255
138
27
5
0
0
0
132
34
0
136
19
119
119
134
118
118
117
119
115
119
119
131
119
118
117
118
115
120
119
125
117
117
117
118
116
119
119
118
118
118
118
118
116
119
119
114
117
118
116
117
117
119
118
112
117
118
116
116
117
119
117
112
117
119
115
115
119
120
117
113
116
117
114
114
119
120
117
114
115
117
126
118
119
120
118
119
118
117
125
120
118
119
119
122
117
117
122
120
116
119
120
128
118
118
119
120
115
120
120
135
120
117
117
119
115
119
119
133
119
118
118
119
115
120
119
134
118
118
117
119
116
119
119
127
119
118
118
119
116
4
255
138
27
5
0
0
0
132
34
0
136
20
119
119
123
117
117
118
119
117
120
119
115
117
117
116
116
117
120
118
104
115
117
115
115
117
119
118
105
116
116
114
115
119
120
118
108
116
117
113
114
119
119
118
113
117
119
126
119
119
120
119
114
117
117
125
122
118
119
119
119
118
118
123
119
117
120
120
123
117
117
118
119
116
119
119
127
118
118
117
119
115
119
118
123
117
117
117
118
115
119
119
125
118
118
118
119
116
119
118
126
118
118
118
119
116
119
119
121
118
118
118
118
116
120
119
114
117
118
116
117
117
119
118
106
117
118
115
116
117
4
255
138
27
5
0
0
0
132
34
0
136
21
120
118
109
117
118
113
114
118
119
117
112
117
119
114
114
119
119
118
115
117
120
122
116
118
120
118
117
117
117
127
121
118
119
119
125
118
117
123
121
117
119
119
128
117
117
120
120
116
119
119
129
118
118
117
120
114
119
119
128
118
118
117
118
114
120
119
131
118
117
117
118
115
120
119
126
118
117
117
118
116
120
119
119
117
117
117
118
116
119
118
112
116
117
117
118
117
119
119
106
117
118
116
116
117
120
118
104
116
117
114
115
119
119
118
105
118
119
114
115
119
119
118
105
117
119
124
120
118
4
255
138
27
5
0
0
0
132
34
0
136
22
120
119
114
116
117
127
122
118
119
119
114
117
118
124
119
117
120
120
118
117
117
119
119
116
119
120
130
118
117
116
118
114
120
119
130
117
117
116
118
115
119
119
131
119
118
117
118
115
120
119
124
118
117
117
118
115
120
119
113
116
117
117
118
116
119
118
108
116
117
117
118
118
119
118
110
117
119
116
117
118
119
117
106
116
118
115
115
118
119
117
104
116
119
114
115
119
119
117
108
117
119
119
117
119
120
117
114
116
117
127
121
119
120
119
121
118
117
123
120
117
119
120
129
118
118
120
120
115
4
255
138
27
5
0
0
0
132
34
0
136
23
120
120
137
119
117
116
119
114
120
119
134
119
118
117
119
116
119
119
130
118
118
118
119
116
119
119
126
119
118
117
118
115
119
119
125
119
118
118
118
116
119
119
111
117
118
117
117
116
120
118
104
115
117
115
116
118
120
117
105
116
117
114
115
118
119
118
110
117
118
113
114
118
119
117
109
116
118
118
116
119
120
118
115
116
117
126
122
118
119
119
117
118
117
123
119
117
119
120
118
118
118
120
119
116
120
120
126
118
117
116
118
115
120
120
131
118
118
117
119
115
120
120
130
118
117
117
119
116
4
255
138
27
5
0
0
0
132
34
0
136
24
120
119
130
117
117
117
118
116
119
119
121
117
117
118
119
117
120
119
117
117
117
116
117
117
119
118
116
117
118
117
117
118
120
117
108
116
117
114
115
118
120
118
108
117
118
113
114
118
119
118
110
117
119
118
116
118
119
118
118
117
117
127
121
119
119
120
123
118
117
123
119
117
120
120
125
118
117
119
119
116
119
119
130
118
118
117
120
114
119
119
125
118
117
117
119
116
120
119
132
118
117
117
118
115
119
119
129
118
118
118
119
116
120
119
125
117
117
118
119
117
120
119
115
117
117
116
117
117
4
255
138
27
5
0
0
0
132
34
0
136
25
119
118
116
117
118
116
117
118
119
118
114
117
118
115
115
119
120
118
113
117
119
113
114
118
119
118
113
117
119
119
117
119
119
119
119
118
118
127
120
117
119
119
122
118
117
123
120
117
120
120
131
118
117
119
119
116
119
119
137
119
118
117
119
114
120
119
135
119
117
116
118
114
119
119
134
119
118
118
119
115
119
118
129
117
117
117
118
116
119
119
122
118
118
118
118
116
120
119
115
117
117
116
117
117
119
117
107
116
118
116
117
118
120
117
106
117
118
115
115
118
119
117
108
117
119
114
115
119
4
255
138
27
5
0
0
0
132
34
0
136
26
120
118
110
117
119
118
116
119
119
118
113
117
118
128
120
118
120
119
121
117
117
124
121
118
119
120
128
118
118
121
119
117
120
120
136
118
117
117
119
115
119
120
140
120
117
117
118
114
120
119
131
117
117
116
119
115
120
118
123
117
117
117
119
116
120
119
122
117
117
117
118
116
119
118
110
117
117
117
118
117
119
118
104
116
118
116
117
118
119
118
100
116
118
114
115
118
119
117
102
117
117
114
115
119
119
118
108
117
119
117
116
119
120
118
114
116
117
128
124
120
120
119
121
118
117
124
120
117
4
255
138
27
5
0
0
0
132
34
0
136
27
120
120
129
118
118
120
118
116
120
120
134
119
118
117
119
115
120
119
129
118
117
116
118
114
119
119
126
118
118
117
119
115
119
119
124
118
118
118
119
116
119
119
120
117
118
118
119
116
120
119
111
117
117
117
117
117
119
118
103
116
118
116
117
118
119
117
100
116
118
115
115
118
120
117
103
116
118
113
114
118
119
117
107
117
119
115
116
119
120
117
108
116
117
127
120
118
120
119
117
117
116
123
120
117
119
120
120
117
117
121
120
115
120
120
128
117
117
117
119
115
120
119
135
119
118
118
119
115
4
255
138
27
5
0
0
0
132
34
0
136
28
120
119
136
119
118
118
119
116
120
120
134
119
118
117
118
116
120
120
126
118
118
118
119
117
119
118
118
118
118
118
118
117
120
118
115
116
117
116
117
118
119
118
108
117
118
114
116
118
120
118
109
117
118
114
114
118
119
118
107
117
119
114
115
119
120
118
112
116
117
127
119
119
119
118
118
117
117
125
122
118
120
120
131
118
117
120
119
117
120
120
136
118
117
117
119
116
119
119
140
119
118
117
119
115
119
120
139
119
118
117
119
116
119
119
134
119
118
117
118
115
119
119
127
119
118
118
118
116
4
255
138
27
5
0
0
0
132
34
0
136
29
120
118
114
116
117
117
118
117
120
118
112
117
118
116
117
118
119
118
112
116
117
115
116
119
120
117
110
118
118
113
114
118
119
117
107
117
119
114
115
118
119
117
108
116
117
128
120
119
120
118
115
117
117
125
121
118
119
120
114
116
117
120
119
117
120
119
118
117
117
118
119
116
119
119
125
118
117
117
119
115
119
119
125
118
118
117
119
116
119
119
126
119
118
117
118
115
120
119
123
117
117
117
118
116
120
118
116
117
117
117
118
117
119
118
112
117
119
117
117
117
120
118
117
118
118
115
115
118
4
255
138
27
5
0
0
0
132
34
0
136
30
119
117
112
117
118
114
115
119
120
118
110
117
118
113
114
118
119
118
111
117
119
128
120
118
120
119
116
117
117
125
122
119
120
120
129
117
117
121
119
117
120
120
132
119
118
117
118
115
119
119
130
118
118
118
119
115
119
119
126
118
118
117
119
116
119
119
121
117
118
118
119
116
120
119
117
118
117
117
118
116
119
118
113
117
117
117
118
117
120
118
108
116
117
116
117
117
119
118
105
117
118
115
115
117
120
118
100
116
118
114
115
119
120
117
100
117
119
114
114
118
120
118
109
116
118
128
118
119
4
255
138
27
5
0
0
0
132
34
0
136
31
120
119
118
117
117
125
122
118
119
120
123
118
118
121
120
116
119
119
125
118
117
118
120
115
119
120
129
119
118
116
119
114
119
119
133
119
118
117
119
115
118
118
129
118
117
117
119
116
120
119
123
117
117
117
118
116
119
118
120
117
117
117
118
117
120
118
110
117
117
115
116
117
119
118
107
117
118
115
116
117
120
117
106
117
117
113
114
118
119
118
109
118
118
114
114
118
120
118
114
116
118
128
119
119
119
119
120
117
118
126
121
117
119
119
120
117
118
122
120
116
120
120
130
118
117
118
119
115
4
255
138
27
5
0
0
0
132
34
0
136
32
120
119
135
119
118
117
120
114
119
119
131
119
118
117
119
115
120
119
135
119
118
117
118
115
120
119
132
118
116
117
118
116
119
119
125
119
119
118
118
116
120
118
117
117
118
116
118
118
119
118
117
117
117
115
116
118
119
118
116
118
118
114
115
118
120
117
114
116
117
113
114
118
119
118
117
118
119
127
118
118
120
119
127
118
117
125
121
118
119
119
128
117
117
122
120
117
119
119
129
118
118
119
119
116
119
119
132
119
118
117
118
114
120
119
135
119
117
116
118
115
119
119
135
119
118
118
119
116
4
255
138
27
5
0
0
0
132
34
0
136
33
119
119
129
119
118
118
118
116
119
119
121
117
118
118
118
116
120
118
116
117
117
116
117
118
119
117
113
117
118
116
116
118
119
117
109
117
118
115
115
119
119
118
105
117
120
114
114
118
120
118
107
116
117
125
119
119
120
118
111
116
116
125
121
118
119
119
119
117
117
122
120
117
119
119
129
117
117
118
120
115
119
119
132
119
118
117
119
114
120
119
130
117
117
117
119
115
119
119
128
118
118
117
118
115
120
118
126
117
117
117
118
116
119
119
117
118
118
118
119
116
120
118
113
116
117
116
116
116
4
255
138
27
5
0
0
0
132
34
0
136
34
120
118
105
116
117
115
116
118
120
117
105
117
118
115
115
119
120
117
105
117
117
114
115
119
120
117
111
117
119
127
118
119
119
118
113
117
118
126
121
118
120
119
113
116
117
121
119
117
119
119
120
117
117
119
120
115
120
120
122
117
117
116
118
114
119
119
125
118
118
117
119
116
120
119
126
118
117
117
118
115
119
119
119
118
118
118
119
116
119
119
116
118
118
117
117
116
119
118
109
117
118
117
117
117
119
118
105
117
118
116
116
117
120
117
105
116
118
114
115
118
119
117
107
117
119
114
114
118
4
255
138
27
5
0
0
0
132
34
0
136
35
120
117
110
117
119
125
118
119
120
119
114
117
117
126
122
118
120
119
121
118
118
123
120
117
120
119
123
118
118
120
119
116
119
120
135
119
118
116
118
114
119
119
137
119
118
117
119
115
119
118
135
118
117
117
119
116
119
119
127
119
118
118
118
115
119
119
117
117
117
117
118
116
119
118
103
116
117
117
118
118
119
118
107
117
118
116
117
118
120
118
106
117
117
113
115
118
119
117
107
117
119
114
115
119
120
117
112
116
118
120
116
119
119
118
119
118
118
128
122
118
120
119
128
117
117
123
119
117
4
255
138
27
5
0
0
0
132
34
0
136
36
120
120
133
118
117
119
119
116
120
120
136
119
118
117
119
115
120
119
132
118
118
117
119
115
119
119
131
119
118
118
119
115
119
118
128
117
117
118
118
116
120
119
121
118
118
117
118
116
120
119
114
117
118
116
117
116
119
119
115
117
118
114
115
117
119
118
109
117
118
115
115
118
120
117
104
116
117
113
114
119
120
118
107
117
118
121
116
118
119
118
109
117
118
127
123
118
119
119
119
118
118
124
120
117
119
119
131
118
118
120
119
117
119
119
131
118
118
117
119
116
120
119
132
118
117
117
119
115
4
255
138
27
5
0
0
0
132
34
0
136
37
120
119
129
118
118
117
118
115
119
118
123
117
118
118
119
117
120
119
120
117
118
118
119
117
120
119
115
117
118
116
117
117
119
118
116
118
119
116
116
117
119
118
115
117
119
115
115
118
119
118
111
117
118
113
114
118
119
118
111
117
118
121
117
119
119
118
113
116
117
127
121
119
119
120
117
118
117
123
119
117
120
119
122
117
117
120
119
116
119
119
128
118
118
117
118
114
119
119
131
118
118
117
119
115
119
118
135
119
118
117
119
116
119
119
133
119
118
117
118
115
119
118
126
118
117
117
118
116
4
255
138
27
5
0
0
0
132
34
0
136
38
119
118
115
117
117
117
118
117
119
118
106
116
117
116
116
117
119
118
102
117
117
115
115
118
120
118
101
117
117
113
114
119
119
117
107
117
119
120
116
119
119
118
114
117
118
127
119
119
119
119
118
118
118
124
121
117
119
119
125
118
118
120
120
115
119
119
128
118
118
117
120
114
119
119
124
118
118
117
119
115
119
119
124
118
118
117
119
116
119
118
119
118
118
118
119
116
119
118
115
117
117
118
119
117
120
118
109
116
117
116
117
117
120
118
102
116
117
116
117
118
120
118
106
116
116
114
115
118
4
255
138
27
5
0
0
0
132
34
0
136
39
120
118
108
117
116
113
114
118
119
118
105
117
119
115
116
118
119
118
119
118
119
128
122
118
120
119
121
117
118
124
121
118
120
120
122
118
118
121
120
116
119
120
126
119
119
118
119
115
119
119
130
118
118
117
119
115
119
119
134
119
118
117
119
116
119
119
132
118
118
118
119
116
120
119
126
118
118
117
118
116
120
119
120
117
117
117
117
117
120
118
108
116
117
116
117
118
119
118
105
117
118
115
115
118
120
117
108
117
117
113
114
119
119
117
110
117
119
120
116
119
120
118
120
117
117
126
120
118
4
255
138
27
5
0
0
0
132
34
0
136
40
120
119
124
118
117
123
120
117
120
120
127
119
118
120
119
116
119
119
134
119
118
117
119
116
119
119
138
119
118
117
120
114
120
119
136
117
117
117
119
115
120
119
128
117
117
117
118
116
119
119
115
117
117
118
119
117
119
118
117
117
118
117
118
117
119
118
116
118
118
116
116
117
120
118
113
117
117
114
115
118
120
118
113
117
118
113
114
118
120
117
106
116
117
114
115
119
120
118
110
116
117
127
123
119
120
119
117
117
117
124
120
117
119
119
126
118
118
121
119
117
120
120
131
118
117
117
118
115
4
255
138
27
5
0
0
0
132
34
0
136
41
120
119
130
117
117
117
119
115
119
119
129
118
118
117
119
116
120
119
125
118
118
117
118
115
120
119
114
117
117
117
118
116
119
119
113
117
118
118
118
117
120
119
111
117
117
116
117
118
120
118
110
117
117
114
115
117
120
118
107
117
117
113
114
118
120
118
106
116
118
114
115
119
120
118
112
116
117
126
120
118
119
119
120
117
118
124
120
117
119
119
130
118
118
121
120
116
120
119
135
119
118
118
119
116
120
119
133
119
117
116
118
114
119
119
127
119
118
117
118
114
119
119
122
118
118
118
118
115
4
255
138
27
5
0
0
0
132
34
0
136
42
120
119
118
117
117
117
118
116
119
119
120
118
118
117
117
116
119
118
112
117
119
116
117
117
119
119
108
117
118
115
115
117
119
118
105
117
119
114
115
118
119
118
107
118
120
113
114
118
120
118
112
116
117
127
123
119
120
119
115
117
116
124
120
117
119
120
123
118
117
121
119
117
120
120
132
118
117
117
118
115
120
119
136
118
117
116
118
114
119
119
135
119
118
117
119
116
120
119
125
118
117
117
118
115
120
119
120
117
117
117
118
116
120
119
115
117
117
117
118
117
120
118
114
116
117
116
117
117
4
255
138
27
5
0
0
0
132
34
0
136
43
120
118
103
117
118
114
115
118
119
117
106
116
117
114
115
119
119
118
104
117
119
114
115
118
119
118
105
116
118
127
121
118
120
118
113
116
116
124
121
118
120
119
123
118
118
121
120
117
119
120
132
118
118
118
120
115
120
119
131
118
117
117
119
115
120
119
133
118
117
117
119
115
120
119
129
118
117
116
118
115
119
119
122
118
118
119
118
115
119
119
121
117
118
118
118
116
119
119
112
117
118
116
116
117
119
118
113
117
119
115
115
117
119
118
107
117
119
114
114
118
120
117
110
117
117
113
114
118
4
255
138
27
5
0
0
0
132
34
0
136
44
120
118
116
117
117
127
119
119
119
118
117
117
117
125
122
118
120
120
123
118
117
121
119
117
119
120
128
118
118
119
119
115
120
120
133
119
118
116
119
115
119
119
134
119
118
117
119
115
120
119
132
118
117
117
119
116
119
119
125
119
118
117
118
115
119
119
114
117
118
117
118
116
119
119
110
117
118
116
117
117
119
118
105
116
118
115
116
118
119
117
107
116
118
114
115
119
120
117
109
117
118
113
114
119
119
117
110
117
118
128
119
120
120
118
119
117
117
125
121
118
120
119
125
117
117
121
120
116
4
255
138
27
5
0
0
0
132
34
0
136
45
119
119
127
118
118
119
120
115
120
120
128
118
117
116
118
114
119
119
125
118
118
117
119
116
119
119
129
118
118
118
118
116
119
119
124
118
118
118
119
116
120
119
121
117
118
118
119
117
120
118
109
116
117
116
117
118
120
118
105
116
117
115
116
118
119
118
104
116
119
114
115
118
119
118
105
117
119
114
114
118
120
117
112
116
117
127
118
119
120
118
117
118
118
125
121
118
120
120
122
117
117
121
119
117
119
120
134
119
118
119
120
115
119
119
126
118
117
117
119
115
119
119
125
118
118
117
119
115
4
255
138
27
5
0
0
0
132
34
0
136
46
119
119
127
119
118
118
118
115
119
119
130
118
118
118
118
116
120
119
124
118
118
118
118
116
120
118
123
117
117
115
116
117
119
118
117
118
118
115
115
117
120
116
118
119
119
115
115
119
120
117
115
118
119
114
114
119
119
118
119
118
119
128
119
119
119
119
122
117
117
126
122
117
119
119
130
118
118
122
119
117
120
120
132
118
117
118
119
115
119
120
135
119
118
117
118
114
119
119
134
119
118
117
118
115
119
119
130
118
118
118
118
115
119
119
123
118
118
118
119
116
119
119
121
117
118
118
119
116
4
255
138
27
5
0
0
0
132
34
0
136
47
120
119
109
117
117
116
117
117
119
119
107
117
118
115
115
117
120
117
107
116
117
113
114
118
120
117
114
117
117
113
113
118
120
118
114
118
119
126
117
119
119
118
113
117
118
126
124
119
120
118
121
118
118
123
120
116
119
120
128
119
118
119
119
116
119
120
131
119
118
116
118
114
119
119
128
118
118
117
119
116
119
119
130
118
117
117
119
116
120
119
123
118
117
117
118
116
119
119
115
117
118
118
118
116
119
118
103
116
117
116
117
117
119
118
97
116
118
116
116
117
119
117
99
116
118
114
114
118
4
255
138
27
5
0
0
0
132
34
0
136
48
119
118
104
117
118
113
114
118
119
118
107
116
118
125
118
119
120
118
110
117
117
125
121
118
120
119
120
117
117
122
119
117
120
120
129
117
117
119
120
115
120
120
130
118
117
117
119
115
119
119
128
118
118
118
119
115
120
119
126
118
117
117
119
116
120
119
126
118
117
117
118
116
120
119
123
118
117
117
118
116
119
118
115
117
118
116
117
118
120
118
110
117
118
115
116
117
120
118
109
117
118
114
115
118
119
117
110
117
119
114
115
119
120
117
109
116
118
125
117
119
120
118
109
116
116
126
121
118
4
255
138
27
5
0
0
0
132
34
0
136
49
120
118
119
117
116
122
120
116
119
120
126
118
117
120
119
116
119
120
131
119
118
117
118
114
120
119
128
117
117
117
119
115
119
119
130
118
118
117
119
116
120
119
125
117
117
117
118
116
120
119
117
118
118
118
119
117
119
118
116
117
118
117
117
117
119
118
114
117
117
116
116
118
119
118
110
117
118
115
116
118
120
118
110
117
117
113
114
118
119
118
112
117
119
123
117
119
120
119
119
118
117
125
120
118
119
119
122
118
118
123
121
117
119
120
133
119
118
119
119
116
119
119
138
119
118
117
119
115
4
255
138
27
5
0
0
0
132
34
0
136
50
119
119
129
118
118
117
118
114
119
119
121
118
118
117
118
115
120
118
124
117
117
117
118
116
119
119
119
118
117
117
118
115
119
119
111
118
118
117
117
116
120
117
108
116
118
115
116
118
120
118
106
117
117
114
115
118
119
118
107
118
117
113
114
118
120
117
113
117
119
123
117
119
119
118
120
117
117
127
122
119
120
119
120
117
117
123
120
116
119
120
121
117
117
120
120
116
120
120
127
118
117
117
119
115
119
120
129
118
118
117
119
115
120
119
137
118
117
117
118
115
120
119
135
119
118
117
118
116
4
255
138
27
5
0
0
0
132
34
0
136
51
120
118
125
118
118
118
119
117
119
118
119
117
117
117
118
117
120
118
118
118
118
115
116
117
120
117
113
117
117
114
115
118
120
118
106
117
117
113
114
118
120
117
107
117
119
121
116
120
120
118
115
118
118
127
120
118
120
119
123
118
118
123
120
117
119
120
128
117
117
120
120
116
120
119
140
119
118
117
119
115
120
120
137
118
117
116
118
114
119
119
135
119
118
117
119
115
119
119
126
118
118
117
119
116
119
119
118
118
118
118
119
117
120
119
110
117
117
116
117
117
120
118
109
117
118
115
116
117
4
255
138
27
5
0
0
0
132
34
0
136
52
120
118
113
117
117
114
115
118
119
118
111
118
118
114
114
118
119
118
107
117
119
119
116
119
120
118
110
117
117
126
122
118
120
119
118
117
117
123
120
117
120
120
124
118
117
118
119
116
119
119
128
118
118
117
119
115
120
119
130
118
118
118
119
115
120
119
130
118
117
117
118
115
119
119
120
118
118
118
119
116
119
119
116
118
118
117
118
116
119
119
112
117
118
117
117
116
120
118
109
117
117
115
116
117
120
118
106
116
117
114
115
118
120
118
105
117
117
113
114
118
120
118
104
116
118
116
116
119
4
255
138
27
5
0
0
0
132
34
0
136
53
119
118
112
116
117
127
121
118
120
118
115
116
117
123
121
118
119
119
124
118
118
120
120
116
120
120
130
118
117
117
119
115
120
120
135
119
117
116
119
115
119
119
136
118
118
118
119
115
120
119
129
118
117
117
118
115
120
119
120
117
117
118
119
117
119
119
117
118
118
117
118
117
120
118
115
117
118
116
117
118
119
118
111
118
118
114
115
117
119
117
112
117
118
114
115
119
119
117
115
117
119
116
116
119
120
118
118
117
117
127
120
118
120
119
120
116
117
123
120
117
119
119
126
118
118
120
120
116
4
255
138
27
5
0
0
0
132
34
0
136
54
120
119
132
118
117
117
119
116
120
119
133
119
118
116
118
114
120
119
134
119
118
116
118
115
119
119
129
118
118
118
119
116
120
119
120
117
117
117
118
116
119
119
110
117
118
118
118
117
119
118
107
116
118
116
117
117
119
117
108
117
118
115
116
118
120
117
109
117
117
114
115
119
120
117
110
117
119
114
116
120
119
118
115
117
118
128
120
118
120
119
119
117
117
124
120
117
119
120
126
118
119
121
119
116
120
120
129
117
117
117
119
116
119
119
126
118
118
117
119
115
120
119
124
118
117
116
118
115
4
255
138
27
5
0
0
0
132
34
0
136
55
119
119
127
119
118
118
118
115
119
119
121
117
118
118
118
116
119
118
112
116
118
117
118
117
120
118
106
117
118
116
116
117
120
118
102
116
117
114
115
118
119
117
102
116
118
114
115
119
120
117
102
116
118
114
115
119
119
119
106
117
118
128
120
118
119
118
113
117
117
125
121
118
119
120
127
119
118
121
120
115
120
119
133
118
117
118
119
115
119
119
136
118
117
116
119
115
119
119
133
119
118
117
119
116
119
119
126
118
117
117
118
116
119
118
119
117
117
117
118
116
120
119
113
117
117
117
118
117
4
255
138
27
5
0
0
0
132
34
0
136
56
119
118
110
117
119
116
116
117
119
117
106
116
118
115
116
118
120
118
110
117
116
113
114
118
120
117
110
117
118
114
115
119
120
118
118
117
117
127
118
119
119
119
124
118
118
125
121
117
119
119
125
118
118
121
120
116
120
119
129
117
117
118
120
115
120
120
131
118
117
116
119
115
119
119
132
119
119
118
119
115
120
118
129
118
118
118
119
116
120
119
125
118
117
117
118
116
119
119
119
117
117
117
118
117
119
119
116
118
119
116
117
117
120
118
110
118
117
114
115
117
119
117
111
117
117
114
115
118
4
255
138
27
5
0
0
0
132
34
0
136
57
119
117
110
117
119
114
115
119
119
118
111
117
118
127
119
119
119
118
111
117
118
126
121
117
119
120
119
118
118
121
119
117
120
120
131
118
117
118
119
115
120
120
135
119
118
116
118
114
119
119
134
119
117
117
119
116
120
119
130
118
118
117
118
115
120
119
121
117
118
118
119
117
120
119
115
117
117
117
118
117
119
118
111
118
119
117
117
117
119
118
109
117
118
115
116
118
119
117
110
117
118
114
115
118
120
118
107
116
118
113
114
118
119
118
106
116
117
127
119
119
120
119
115
117
117
125
121
118
4
255
138
27
5
0
0
0
132
34
0
136
58
119
119
124
118
117
122
120
117
120
119
131
118
117
118
119
116
119
119
134
119
118
117
119
115
120
119
133
118
117
116
118
115
120
119
130
118
116
117
118
115
119
119
119
118
118
117
118
115
119
118
117
117
118
118
119
117
119
119
110
117
118
117
117
117
119
117
101
116
118
115
116
118
120
117
102
117
118
115
115
118
120
117
108
118
118
113
114
118
119
118
112
117
118
127
118
119
120
118
117
116
117
125
121
117
120
120
123
117
117
121
119
117
119
119
126
118
118
119
120
114
119
119
123
117
117
116
119
115
4
255
138
27
5
0
0
0
132
34
0
136
59
120
119
123
117
117
116
118
115
119
118
128
117
118
118
119
116
119
119
126
119
118
118
118
116
120
119
117
117
116
117
118
116
120
118
115
116
117
116
117
118
119
117
111
117
118
115
116
118
119
117
106
116
117
114
115
119
120
117
107
116
119
114
115
119
119
118
111
117
118
127
119
119
120
118
116
117
118
127
123
119
120
120
123
118
118
122
119
118
120
119
128
118
117
119
120
115
119
119
136
118
117
117
119
115
119
119
138
119
118
117
119
115
119
119
130
118
118
117
119
116
119
119
123
118
118
117
118
116
4
255
138
27
5
0
0
0
132
34
0
136
60
120
119
119
118
117
117
118
116
120
118
114
116
117
116
117
117
120
118
116
117
116
115
115
117
119
118
109
117
118
114
114
117
119
117
108
117
119
114
115
119
120
117
108
116
118
126
117
119
119
118
114
116
117
126
123
119
119
119
120
117
117
122
120
117
119
119
132
118
118
119
120
115
119
119
131
119
118
117
119
115
119
119
128
118
118
117
118
115
119
119
128
119
118
118
118
116
119
119
121
117
117
117
118
116
119
119
116
117
118
118
118
116
120
118
113
116
117
115
116
116
120
117
113
116
117
115
116
118
4
255
138
27
5
0
0
0
132
34
0
136
61
120
117
108
117
117
114
114
118
119
117
109
117
118
114
115
119
119
118
111
118
119
125
118
119
120
118
116
118
117
126
120
117
120
119
119
118
118
122
119
117
120
120
117
117
117
118
119
116
120
119
115
116
117
117
119
115
120
119
120
117
118
117
119
115
119
119
130
118
118
118
118
115
120
119
131
117
118
117
118
116
120
118
121
118
118
119
119
117
120
119
115
118
118
116
117
116
119
118
113
116
117
115
116
118
119
118
113
117
119
114
114
117
119
118
108
117
118
113
113
117
119
117
103
117
119
127
118
119
4
255
138
27
5
0
0
0
132
34
0
136
62
119
118
111
117
118
126
121
118
119
118
119
118
118
123
121
117
120
120
125
118
117
119
120
115
120
120
125
117
117
116
119
115
120
120
128
117
117
116
118
115
119
119
137
119
118
117
118
115
120
119
130
118
118
117
118
116
119
119
122
118
118
117
118
116
119
119
111
117
118
117
118
117
120
118
106
116
117
115
116
118
120
118
107
117
117
115
115
119
119
118
114
118
118
113
114
118
119
118
121
118
119
123
116
118
119
118
123
117
117
126
123
119
119
119
121
117
118
123
120
117
119
119
122
117
118
120
120
115
4
255
138
27
5
0
0
0
132
34
0
136
63
120
119
126
118
117
117
119
115
120
119
129
117
117
117
119
115
119
118
130
118
118
117
119
116
119
119
128
118
118
118
119
116
119
119
122
118
118
118
118
116
119
118
117
117
117
117
118
118
120
118
114
116
117
116
117
118
119
117
117
118
118
115
116
118
119
118
115
118
118
113
114
118
119
117
114
117
119
122
116
119
119
118
114
117
118
127
120
118
120
119
117
117
117
123
120
117
120
120
127
119
118
120
119
116
120
119
128
117
117
117
119
116
119
119
130
118
118
117
119
116
119
119
132
118
118
117
119
116
4
255
138
27
5
0
0
0
132
34
0
136
64
119
119
126
118
118
118
118
116
119
119
120
117
118
118
119
116
119
119
119
118
118
117
117
116
120
118
111
117
118
116
116
117
119
117
106
116
118
115
116
119
120
117
107
116
116
113
114
118
120
118
108
117
118
117
116
119
119
118
115
117
118
127
120
118
119
119
118
118
118
124
121
117
119
120
123
118
118
120
118
116
120
120
126
119
118
117
119
115
120
119
127
119
118
117
119
115
120
119
128
118
118
118
118
115
119
119
129
118
118
118
118
116
120
119
125
118
117
117
118
116
119
118
122
117
118
117
118
117
4
255
138
27
5
0
0
0
132
34
0
136
65
119
118
116
118
119
116
116
117
119
117
113
117
118
115
116
118
120
117
106
117
119
113
114
118
119
118
109
118
118
117
115
118
119
118
111
117
118
127
120
117
119
119
116
117
118
124
120
117
120
119
124
117
117
120
119
116
119
119
131
118
118
117
119
115
119
118
127
118
117
117
119
115
119
119
126
118
118
117
118
115
118
118
120
117
117
117
118
116
119
119
116
118
118
118
118
116
120
119
110
117
117
116
117
116
120
118
104
115
117
115
116
117
119
118
106
117
118
114
115
118
120
117
106
116
119
114
115
119
4
255
138
27
5
0
0
0
132
34
0
136
66
119
117
109
117
119
116
116
119
120
119
116
117
117
127
120
118
119
119
117
117
117
124
121
117
119
119
119
117
117
120
119
117
120
119
123
117
117
117
119
115
119
119
122
117
117
117
119
115
120
119
129
118
117
117
118
115
120
119
127
118
117
117
118
115
120
118
129
117
117
117
118
116
119
118
124
118
118
117
118
117
119
119
113
117
118
116
116
117
119
118
109
117
119
115
115
117
120
118
108
117
118
113
114
118
120
118
108
117
118
115
115
118
120
118
116
117
117
126
120
117
119
118
121
117
117
124
121
118
4
255
138
27
5
0
0
0
132
34
0
136
67
120
120
131
118
117
120
119
116
119
120
132
119
118
117
118
115
120
118
129
118
117
117
119
115
120
119
127
118
117
117
119
116
119
119
125
118
118
118
118
116
120
119
124
118
117
117
118
116
119
118
122
117
118
117
118
117
120
118
118
117
117
116
117
117
119
118
110
117
117
115
116
118
119
118
110
118
117
113
114
118
119
118
112
117
119
114
115
118
120
118
115
117
117
126
118
119
120
119
119
118
117
124
121
117
120
120
125
118
117
120
119
117
120
120
131
118
117
117
119
116
119
120
133
119
117
116
118
114
4
255
138
27
5
0
0
0
132
34
0
136
68
119
119
132
118
117
117
119
116
120
119
132
118
117
117
118
116
119
119
125
119
118
118
118
116
120
118
115
116
117
117
118
117
119
119
107
117
118
116
116
117
120
118
111
117
119
114
115
117
119
118
112
117
117
114
115
119
119
117
109
117
119
114
115
119
119
118
111
117
117
127
120
118
119
118
115
116
117
124
121
117
119
119
119
117
117
121
120
116
119
119
125
118
117
118
119
116
120
120
129
118
118
117
119
115
120
119
131
118
117
117
118
115
120
119
133
119
118
118
118
116
120
119
127
118
118
117
118
116
4
255
138
27
5
0
0
0
132
34
0
136
69
120
119
114
116
117
118
118
117
120
118
106
117
118
116
116
117
119
118
105
117
118
115
115
117
119
118
109
117
118
114
115
119
119
117
109
117
119
114
115
119
119
118
110
117
118
128
120
118
119
119
116
118
117
124
120
117
120
120
120
117
117
120
119
117
119
119
124
118
118
118
120
114
120
119
129
117
117
116
119
115
119
119
129
118
118
118
119
115
120
119
124
117
117
117
118
116
120
118
125
118
118
118
119
117
119
119
120
117
118
118
119
117
120
118
115
118
119
115
117
117
120
118
111
117
118
115
116
118
4
255
138
27
5
0
0
0
132
34
0
136
70
119
117
112
117
118
114
115
119
120
118
109
116
117
113
115
119
119
118
112
117
118
128
119
119
120
118
117
117
117
125
121
118
119
120
126
119
118
122
119
116
120
120
125
118
118
118
120
115
121
119
136
119
118
116
118
114
120
119
131
118
117
117
119
116
120
119
126
118
117
117
118
116
119
118
122
117
117
117
118
116
119
119
119
119
118
117
117
116
119
118
109
117
118
116
117
118
119
118
102
117
118
115
116
118
120
117
103
117
117
113
114
119
120
118
105
117
117
113
114
118
120
118
108
116
117
127
119
119
4
255
138
27
5
0
0
0
132
34
0
136
71
119
119
116
117
117
126
123
118
119
120
123
118
118
122
119
117
119
120
129
118
119
119
119
115
119
120
134
119
118
116
118
114
119
119
131
118
118
117
119
115
119
119
130
118
118
116
119
116
119
119
129
118
118
118
119
116
119
118
119
118
118
118
119
117
119
118
114
117
118
117
117
117
120
117
113
116
118
115
116
118
118
117
110
117
117
114
115
118
119
118
107
117
118
114
114
118
119
118
109
117
119
127
120
119
120
118
111
117
118
126
122
119
120
119
117
117
117
122
120
117
120
120
127
119
118
118
119
116
4
255
138
27
5
0
0
0
132
34
0
136
72
119
119
125
118
118
117
119
115
119
119
127
118
118
117
119
115
119
119
128
118
118
118
119
116
120
119
123
118
118
117
118
115
120
118
113
116
117
118
118
117
119
118
111
117
118
116
117
118
119
118
109
117
117
115
116
118
120
118
109
117
117
113
114
117
119
117
100
116
117
113
115
119
119
117
104
115
117
127
118
119
119
118
114
117
118
127
122
118
120
119
120
117
117
122
119
117
119
120
130
118
118
120
119
116
120
120
137
118
117
116
118
115
120
120
137
118
117
117
119
115
119
119
136
119
119
117
119
115
4
255
138
27
5
0
0
0
132
34
0
136
73
120
119
129
117
117
117
118
116
120
119
119
118
117
117
118
116
119
119
108
117
118
116
117
116
120
118
108
117
118
115
116
118
119
118
111
117
117
114
115
118
119
117
116
118
119
114
115
119
120
118
119
118
119
125
117
119
120
118
126
117
117
125
121
118
120
120
128
118
117
122
120
116
119
119
135
119
118
119
120
115
120
119
136
119
118
117
118
114
119
119
133
119
118
117
119
115
120
119
128
117
117
117
118
116
120
119
124
117
117
117
118
116
119
119
119
118
118
118
118
116
120
118
118
118
118
117
118
118
4
255
138
27
5
0
0
0
132
34
0
136
74
120
118
112
116
117
115
116
118
120
118
110
118
118
114
114
118
120
117
113
116
117
114
115
119
119
118
115
117
118
125
117
119
119
119
119
118
117
125
120
118
120
120
121
117
117
122
119
118
119
120
128
118
117
118
119
116
120
119
126
117
117
116
118
115
119
119
127
118
118
117
119
115
120
119
122
117
117
117
118
115
119
119
118
118
118
118
119
117
119
119
111
117
118
118
119
116
119
118
116
117
118
117
118
117
119
117
107
116
118
116
117
118
120
118
99
117
117
114
115
119
120
117
100
117
119
114
114
119
4
255
138
27
5
0
0
0
132
34
0
136
75
120
118
107
117
119
122
116
119
120
118
111
117
117
127
122
119
120
119
120
117
117
122
119
117
120
120
126
118
117
119
119
116
119
120
127
119
118
117
118
114
120
119
129
117
117
117
119
115
120
119
128
117
117
117
118
115
119
119
124
118
118
118
119
116
120
119
121
117
117
117
118
116
120
119
113
116
116
116
117
117
120
118
109
117
117
115
116
117
119
118
104
116
118
115
115
118
120
118
107
116
116
113
114
119
119
118
107
117
119
120
115
119
120
118
114
116
117
127
121
119
119
119
123
118
118
124
121
117
4
255
138
27
5
0
0
0
132
34
0
136
76
120
120
127
118
118
120
120
116
120
119
125
117
117
117
120
115
119
119
126
118
118
117
119
115
120
119
128
117
117
117
119
116
119
119
121
118
118
118
118
116
119
119
123
118
118
118
118
115
119
119
121
118
118
117
117
116
120
119
113
117
117
115
116
117
119
117
107
117
118
115
115
118
119
118
111
118
119
114
114
118
119
118
113
117
118
116
115
118
119
118
117
118
118
127
120
117
120
119
121
118
117
123
120
117
119
120
131
118
117
120
119
117
119
120
133
119
118
118
119
115
119
119
131
118
118
118
120
114
4
255
138
27
5
0
0
0
132
34
0
136
77
120
120
134
119
118
117
119
116
120
119
128
119
118
118
118
116
120
119
126
119
118
117
118
116
120
118
117
118
118
118
118
117
120
118
116
118
118
116
116
117
120
118
110
116
117
114
115
118
120
117
105
116
118
114
115
119
120
118
107
116
118
116
115
119
119
118
116
117
117
127
121
118
120
118
120
116
116
123
120
117
119
119
129
118
117
120
120
116
120
119
133
118
117
117
119
116
119
119
131
118
118
117
119
115
119
119
126
119
118
117
118
115
119
119
123
118
118
118
118
116
120
119
123
118
118
118
119
117
4
255
138
27
5
0
0
0
132
34
0
136
78
119
119
117
118
118
117
118
116
119
118
112
117
118
117
117
118
120
118
110
118
119
115
115
118
119
117
108
117
118
114
114
118
119
117
110
117
118
118
116
119
119
118
114
117
118
127
120
118
119
118
113
116
117
123
121
118
120
120
122
117
116
119
119
116
119
120
128
118
118
117
119
115
119
119
130
118
118
117
119
115
119
119
129
118
119
118
119
115
119
119
128
118
118
117
118
115
119
119
126
119
118
117
118
116
119
119
119
118
118
118
118
116
120
118
113
117
118
116
116
117
119
118
109
117
119
115
115
118
4
255
138
27
5
0
0
0
132
34
0
136
79
120
117
111
117
118
114
115
119
120
118
114
118
119
114
115
119
120
119
120
117
116
127
120
119
120
118
122
117
117
125
121
118
119
120
120
117
118
121
120
115
119
119
123
117
117
118
119
115
120
119
132
118
117
116
118
114
119
119
128
117
117
117
118
115
120
119
128
118
118
117
119
116
119
118
118
117
117
117
118
116
120
118
116
116
117
117
118
116
120
118
112
116
117
116
117
118
119
117
114
117
117
115
116
119
120
118
115
117
117
113
114
118
119
117
109
117
119
114
115
119
120
118
110
117
118
128
121
119
4
255
138
27
5
0
0
0
132
34
0
136
80
119
118
114
117
118
125
121
118
119
119
121
117
118
122
120
116
119
120
125
118
118
119
119
115
120
119
127
118
117
116
119
115
120
118
129
118
117
117
119
116
119
119
125
118
118
117
118
116
119
119
117
118
118
117
118
116
120
119
112
116
117
117
118
117
120
118
108
117
117
116
116
116
119
118
97
115
116
115
116
118
119
117
97
116
117
114
115
118
120
118
106
116
118
114
114
118
120
118
117
118
117
126
120
118
120
118
119
117
117
124
121
118
119
119
121
117
118
121
120
116
119
119
121
117
118
118
120
115
4
255
138
27
5
0
0
0
132
34
0
136
81
119
119
125
118
118
117
119
114
120
119
128
118
118
118
120
115
119
119
130
118
118
118
118
116
120
119
126
119
119
119
119
116
120
119
122
118
118
118
118
116
120
118
115
117
117
116
116
117
119
118
107
116
117
115
116
118
119
118
103
117
117
115
115
118
120
118
103
116
117
113
114
118
120
118
109
116
118
127
119
119
120
119
113
117
117
124
120
117
120
120
125
118
117
120
119
117
120
119
129
117
117
118
119
116
121
119
131
118
117
117
119
115
120
119
134
119
117
117
118
115
119
119
139
119
118
117
118
115
4
255
138
27
5
0
0
0
132
34
0
136
82
120
119
130
118
117
117
118
116
119
118
122
117
117
118
119
117
120
119
115
117
117
116
117
117
120
118
109
117
117
114
115
117
119
117
107
116
117
114
115
119
119
117
111
117
118
114
115
119
119
118
112
116
117
127
121
119
120
118
118
117
117
125
121
118
119
119
124
118
118
122
120
116
120
119
129
118
117
118
119
115
120
118
131
118
117
117
119
115
119
119
135
119
118
117
119
115
120
118
132
118
117
117
119
116
119
118
124
118
118
118
119
117
119
119
122
118
118
118
118
116
119
118
111
117
118
117
118
117
4
255
138
27
5
0
0
0
132
34
0
136
83
119
118
114
118
118
115
116
117
120
117
108
117
119
115
116
119
119
117
113
117
119
114
115
119
119
118
116
117
119
128
117
119
119
119
119
118
117
126
122
118
119
120
126
118
117
122
119
117
119
119
128
117
117
118
119
116
119
119
130
118
118
117
119
114
120
119
129
117
117
116
118
115
120
119
127
118
117
117
118
116
119
119
120
117
118
118
118
116
119
119
115
117
117
118
118
116
119
119
118
118
118
116
117
117
119
118
115
117
118
115
116
118
119
118
112
117
118
114
115
118
119
118
110
118
119
113
114
118
4
255
138
27
5
0
0
0
132
34
0
136
84
120
118
108
117
118
128
118
120
119
119
116
118
118
126
121
118
120
119
120
117
117
122
120
117
119
120
128
118
118
119
119
116
119
119
135
119
118
117
120
114
120
119
139
119
117
116
118
115
120
119
132
118
117
117
119
116
120
119
119
118
118
117
118
116
120
119
113
116
117
117
118
116
119
118
106
116
117
116
117
117
119
118
101
116
118
116
117
118
120
117
97
115
117
114
115
118
119
117
104
116
118
114
115
119
119
118
112
117
119
126
117
118
120
118
120
117
117
125
120
117
120
119
121
117
117
121
119
117
4
255
138
27
5
0
0
0
132
34
0
136
85
120
120
128
117
117
118
119
116
119
119
125
118
118
117
119
115
120
119
125
118
118
118
119
115
119
118
128
117
117
117
119
116
119
119
126
118
118
118
119
116
120
119
119
118
117
117
118
116
119
118
113
117
118
116
117
117
120
118
110
116
117
115
116
117
120
117
116
117
117
114
115
118
119
117
112
117
118
114
115
119
119
118
111
117
119
125
116
118
119
118
117
117
117
127
121
118
120
119
124
117
117
123
121
117
120
119
127
118
117
119
120
115
120
119
125
118
117
116
119
115
119
119
125
118
118
118
119
115
4
255
138
27
5
0
0
0
132
34
0
136
86
119
119
130
118
118
118
119
116
120
119
128
118
117
117
118
116
119
119
128
118
118
118
118
116
119
118
117
118
118
117
117
117
120
117
111
118
119
117
117
118
119
118
112
117
117
115
115
117
119
118
112
116
117
112
114
117
120
118
108
116
118
119
117
118
119
118
115
117
118
127
120
117
120
119
122
117
117
123
119
117
120
120
132
118
117
119
119
116
119
119
138
119
118
118
119
115
119
120
139
120
117
117
118
115
119
119
129
118
118
118
118
116
119
119
122
118
118
117
118
115
120
119
113
116
117
117
118
116
4
255
138
27
5
0
0
0
132
34
0
136
87
120
119
111
117
117
116
117
117
119
118
105
116
118
116
117
118
119
118
103
117
118
115
116
119
120
118
109
117
119
114
115
119
119
118
108
117
119
120
116
119
119
119
116
117
117
126
121
117
120
120
120
117
117
122
120
117
120
120
125
118
117
119
119
116
119
119
127
118
118
117
119
115
120
119
126
118
117
117
118
115
119
118
126
118
118
117
119
116
120
119
125
118
117
117
118
116
119
119
122
117
118
118
119
117
120
119
118
118
118
116
117
117
119
118
113
117
118
116
116
117
120
118
104
116
116
114
115
118
4
255
138
27
5
0
0
0
132
34
0
136
88
120
117
100
115
117
113
114
119
120
117
105
116
118
117
116
119
120
118
113
117
117
127
119
119
119
119
122
118
118
124
121
117
119
120
120
117
118
120
119
116
119
120
123
118
118
117
119
115
120
119
126
119
118
116
118
114
120
119
130
118
118
117
118
115
120
119
130
118
117
117
118
116
119
118
127
118
118
118
119
117
119
119
117
118
118
117
118
117
120