*** FIRST HEADER ***
4
255
6
127
6
0
182
253
0
4
255
10
27
5
0
0
0
4
30
0
0
79
*** OTHER HEADER ***
4
255
138
27
5
0
0
0
132
34
0
136
159
*** EMG DATA ***
120
118
123
118
118
118
119
116
119
118
108
116
117
117
118
117
119
118
90
114
116
115
117
118
119
118
86
114
115
114
117
119
120
117
87
114
114
113
116
119
119
118
101
119
123
128
119
119
119
118
118
119
121
125
118
119
119
119
134
119
118
121
118
117
120
119
156
120
118
118
119
116
119
119
162
121
118
118
118
115
120
119
148
119
118
118
119
115
120
119
135
120
117
117
118
115
120
119
126
118
118
118
118
116
120
119
112
117
118
117
118
116
119
118
100
116
117
117
118
117
119
118
93
115
116
116
117
117
*** OTHER HEADER ***
4
255
26
27
5
0
0
0
20
34
0
133
0
*** QUATERNION DATA ***
46
95
87
63
233
235
8
63
107
201
21
189
6
45
142
189
*** OTHER HEADER ***
4
255
138
27
5
0
0
0
132
34
0
136
160
*** EMG DATA ***
119
117
84
114
115
114
117
118
119
117
88
115
114
112
116
119
119
118
99
118
122
121
119
119
120
117
109
117
121
127
119
119
119
119
123
118
119
124
118
117
119
120
144
120
117
119
118
116
119
119
153
120
118
117
118
114
119
119
160
120
117
117
118
114
119
118
153
119
117
117
118
115
119
118
131
117
118
118
118
115
119
119
121
118
118
117
118
116
120
118
95
115
115
116
118
117
119
118
84
114
116
116
117
117
120
118
83
113
115
114
117
119
119
118
95
115
115
114
116
119
120
118
105
118
122
126
120
119
*** OTHER HEADER ***
4
255
26
27
5
0
0
0
20
34
0
133
1
*** QUATERNION DATA ***
136
95
87
63
100
235
8
63
236
189
21
189
20
46
142
189
*** OTHER HEADER ***
4
255
138
27
5
0
0
0
132
34
0
136
161
*** EMG DATA ***
119
118
114
119
122
125
118
119
119
119
126
119
119
121
118
117
119
120
141
120
118
118
118
116
119
119
141
120
118
117
118
115
120
120
143
119
118
117
118
115
120
119
142
119
118
117
118
115
119
119
129
118
118
118
118
115
120
118
129
118
118
118
119
116
120
117
104
114
115
115
117
117
120
118
101
115
114
113
116
117
120
118
95
114
115
114
117
119
118
117
87
114
114
113
116
118
119
118
93
118
121
126
119
120
119
119
112
118
120
126
118
118
119
119
122
118
118
123
119
117
119
118
138
118
117
119
118
116
4
255
26
27
5
0
0
0
20
34
0
133
2
127
93
87
63
169
238
8
63
154
187
21
189
92
42
142
189
4
255
26
27
5
0
0
0
20
34
0
133
3
214
93
87
63
40
238
8
63
4
196
21
189
115
38
142
189
4
255
138
27
5
0
0
0
132
34
0
136
162
120
119
152
120
117
116
118
115
119
119
149
121
118
116
118
114
119
119
148
120
118
117
118
115
120
119
125
117
117
117
118
115
119
118
110
117
118
118
119
117
120
118
96
114
115
115
117
116
119
118
85
115
116
117
117
118
119
117
76
114
115
114
116
117
120
117
82
114
114
113
116
119
119
117
90
116
119
124
121
120
120
118
109
118
122
124
119
119
119
119
126
119
119
121
118
118
120
120
153
120
117
117
118
116
120
119
163
121
118
117
119
116
119
119
157
121
118
118
119
114
120
119
159
121
117
117
118
115
4
255
26
27
5
0
0
0
20
34
0
133
4
70
96
87
63
107
234
8
63
158
194
21
189
207
32
142
189
4
255
138
27
5
0
0
0
132
34
0
136
163
119
119
138
119
119
117
118
115
119
119
118
118
118
117
118
116
119
118
102
116
116
116
118
117
119
118
98
115
116
115
118
118
120
118
95
114
115
114
117
119
120
117
92
115
115
112
116
119
119
117
97
117
118
123
119
120
120
118
106
117
122
129
119
119
119
119
119
118
119
124
118
117
120
119
139
119
119
120
119
116
119
119
154
120
118
117
119
115
119
119
161
121
118
117
118
114
120
119
153
120
117
117
119
115
119
119
134
119
118
118
118
115
119
119
118
118
118
118
118
116
119
118
101
116
117
117
117
116
4
255
26
27
5
0
0
0
20
34
0
133
5
251
95
87
63
228
234
8
63
69
209
21
189
86
28
142
189
4
255
138
27
5
0
0
0
132
34
0
136
164
120
118
91
114
116
116
118
118
120
118
84
112
115
113
116
118
120
117
86
113
114
113
116
119
120
118
99
115
119
121
119
120
119
119
116
119
122
127
119
119
119
119
126
119
119
124
118
118
119
120
143
120
118
121
119
116
120
120
147
120
117
117
118
115
120
118
147
120
117
116
118
114
119
118
143
119
117
116
118
115
120
118
134
119
118
118
119
116
120
118
125
118
118
118
119
116
120
119
126
118
116
116
118
117
120
118
111
117
116
115
117
118
120
118
92
115
115
114
116
118
120
117
82
114
114
113
116
119
4
255
26
27
5
0
0
0
20
34
0
133
6
180
94
87
63
234
236
8
63
48
207
21
189
214
27
142
189
4
255
138
27
5
0
0
0
132
34
0
136
165
120
119
83
116
117
119
119
119
120
118
102
118
122
127
120
119
120
119
128
118
118
123
119
118
119
120
151
121
119
119
118
116
119
119
153
120
118
117
118
115
119
119
164
121
118
118
118
114
120
118
157
120
118
118
119
116
119
119
147
119
118
118
119
115
118
118
135
119
118
118
118
115
120
118
106
115
116
116
117
116
120
118
91
114
115
115
117
117
119
118
78
111
114
113
115
117
118
116
77
112
114
113
116
119
119
117
89
114
115
117
119
120
119
118
104
119
122
125
118
118
120
119
124
118
119
123
119
118
4
255
26
27
5
0
0
0
20
34
0
133
7
90
95
87
63
247
235
8
63
92
190
21
189
235
27
142
189
4
255
138
27
5
0
0
0
132
34
0
136
166
119
120
144
119
117
118
118
116
119
120
152
120
117
117
118
115
120
120
149
120
116
115
117
113
119
120
149
120
118
117
118
115
119
119
140
119
118
118
119
115
119
119
123
118
118
117
118
116
120
119
109
117
116
116
118
117
120
118
93
115
116
116
118
118
120
117
85
113
115
114
117
118
119
116
79
112
113
113
116
119
119
117
80
113
113
114
119
119
120
118
97
117
123
128
119
120
119
119
118
119
120
125
119
118
120
120
139
119
118
121
118
117
120
120
151
120
117
118
118
116
119
120
166
122
118
116
118
114
4
255
26
27
5
0
0
0
20
34
0
133
8
35
97
87
63
41
233
8
63
243
190
21
189
156
27
142
189
4
255
26
27
5
0
0
0
20
34
0
133
9
204
97
87
63
26
232
8
63
117
183
21
189
228
30
142
189
4
255
138
27
5
0
0
0
132
34
0
136
167
119
120
158
121
118
116
118
115
120
119
145
119
118
117
118
116
119
119
122
118
117
117
118
116
120
119
103
116
116
116
118
117
119
118
92
115
116
116
117
117
120
118
87
114
115
114
117
118
120
117
86
113
114
113
116
119
120
118
95
115
115
114
119
120
120
118
114
119
121
128
119
120
120
119
123
118
119
123
118
118
119
119
137
119
119
120
118
116
119
120
143
120
117
117
118
115
119
120
143
120
118
117
118
114
120
120
140
119
118
117
118
115
120
119
139
119
118
117
118
116
119
119
124
118
118
117
118
116
4
255
26
27
5
0
0
0
20
34
0
133
10
17
96
87
63
197
234
8
63
211
207
21
189
171
27
142
189
4
255
138
27
5
0
0
0
132
34
0
136
168
119
119
102
117
117
117
117
116
120
117
77
114
115
116
117
118
120
118
79
113
115
114
117
119
118
117
72
112
114
113
116
119
119
118
75
113
114
113
118
120
120
117
100
119
123
128
119
120
120
119
120
117
120
125
119
119
120
120
140
120
117
120
118
117
120
119
154
121
117
117
118
116
119
120
158
120
116
115
117
113
119
119
148
120
117
117
118
115
119
119
146
119
117
116
117
114
118
117
125
117
117
117
118
116
120
119
117
117
117
117
118
117
119
118
106
116
116
116
118
117
119
118
98
115
116
114
116
117
4
255
26
27
5
0
0
0
20
34
0
133
11
73
95
87
63
11
236
8
63
202
206
21
189
92
25
142
189
4
255
138
27
5
0
0
0
132
34
0
136
169
120
117
97
114
114
113
116
119
120
117
92
114
114
114
118
120
120
118
109
118
123
127
120
119
120
118
121
118
120
125
119
119
119
120
110
118
119
120
118
117
120
120
130
118
118
118
119
116
120
119
153
120
118
117
119
114
120
118
151
120
118
117
118
115
119
119
139
119
118
117
118
115
120
118
129
118
118
118
119
116
120
119
127
118
116
116
117
115
119
119
118
117
115
115
116
116
120
118
111
117
115
115
116
118
120
118
94
114
114
113
116
118
119
118
100
115
115
114
116
119
119
118
113
118
123
127
121
118
4
255
26
27
5
0
0
0
20
34
0
133
12
35
95
87
63
90
236
8
63
48
214
21
189
226
18
142
189
4
255
26
27
5
0
0
0
20
34
0
133
13
204
94
87
63
247
236
8
63
48
205
21
189
49
16
142
189
4
255
138
27
5
0
0
0
132
34
0
136
170
120
119
124
117
120
124
119
119
119
120
137
119
118
119
117
116
120
119
148
119
118
118
119
116
120
119
156
120
118
117
118
115
120
119
146
119
118
117
118
115
119
119
136
119
119
117
118
115
119
119
121
117
118
118
119
116
119
119
99
116
118
117
117
116
120
118
100
116
115
115
117
117
119
118
92
115
116
114
116
118
119
118
98
113
113
112
115
118
118
117
105
114
114
113
116
119
120
119
107
118
123
127
120
119
120
118
119
118
121
124
119
119
119
120
141
120
118
120
117
117
120
119
152
119
117
117
118
116
4
255
26
27
5
0
0
0
20
34
0
133
14
224
94
87
63
207
236
8
63
180
188
21
189
112
22
142
189
4
255
138
27
5
0
0
0
132
34
0
136
171
119
119
154
120
118
117
118
114
119
119
148
120
118
118
118
114
120
119
137
118
118
117
118
115
119
119
128
118
118
118
119
115
120
118
112
116
117
118
119
116
119
118
102
116
117
116
117
117
120
117
95
115
116
115
117
117
119
117
88
113
115
114
116
117
120
117
77
113
113
113
116
119
119
118
100
119
123
128
119
119
118
117
120
117
120
125
118
119
120
120
152
120
118
121
118
118
120
120
164
121
118
118
119
117
119
120
157
121
118
116
117
113
119
119
155
120
118
117
119
114
120
118
147
119
118
118
118
115
4
255
26
27
5
0
0
0
20
34
0
133
15
137
93
87
63
255
238
8
63
3
200
21
189
150
14
142
189
4
255
138
27
5
0
0
0
132
34
0
136
172
120
119
129
118
117
117
118
116
120
118
108
117
118
117
118
116
120
117
91
115
116
117
118
118
119
118
84
115
116
114
117
117
120
117
80
113
115
113
116
119
119
118
77
114
114
113
116
119
119
118
88
116
122
128
119
119
119
118
107
117
121
126
119
119
120
119
132
119
119
122
119
118
120
120
160
120
117
118
119
117
120
119
153
119
118
117
119
115
119
119
158
121
118
117
118
114
119
119
147
119
118
117
117
114
119
119
133
118
117
116
117
114
119
119
115
117
118
118
118
116
119
119
84
115
116
116
117
116
4
255
26
27
5
0
0
0
20
34
0
133
16
7
92
87
63
127
241
8
63
118
179
21
189
46
12
142
189
4
255
26
27
5
0
0
0
20
34
0
133
17
220
92
87
63
62
240
8
63
206
212
21
189
235
255
141
189
4
255
138
27
5
0
0
0
132
34
0
136
173
119
117
75
113
115
115
117
118
120
117
76
113
114
114
117
119
120
117
86
112
114
113
117
120
119
118
96
119
124
128
119
119
120
118
112
119
121
126
119
119
119
119
106
116
118
123
119
117
119
120
125
118
119
119
118
116
119
119
145
119
118
117
118
114
120
120
159
121
117
117
119
116
120
120
155
120
117
117
118
116
120
119
130
118
118
118
118
116
120
118
110
116
116
117
117
116
119
119
91
115
116
115
116
115
120
118
83
112
114
115
117
118
119
117
85
113
114
114
117
118
120
117
89
113
113
113
116
119
4
255
26
27
5
0
0
0
20
34
0
133
18
236
92
87
63
44
240
8
63
30
193
21
189
114
3
142
189
4
255
138
27
5
0
0
0
132
34
0
136
174
119
118
89
118
119
125
119
119
119
118
105
119
122
125
119
119
119
118
126
118
118
121
118
117
120
120
137
118
118
118
119
117
120
119
157
121
118
117
119
114
119
119
151
120
118
118
118
114
120
119
132
118
118
117
118
115
120
118
124
118
118
118
119
116
120
118
124
118
118
118
119
116
119
119
120
117
117
116
117
117
120
118
113
116
116
115
117
118
119
116
97
113
114
113
116
119
119
117
94
113
114
113
116
119
119
118
104
119
120
127
119
119
119
119
117
120
121
126
118
119
119
119
141
120
118
123
118
117
4
255
26
27
5
0
0
0
20
34
0
133
19
239
92
87
63
28
240
8
63
62
195
21
189
110
5
142
189
4
255
138
27
5
0
0
0
132
34
0
136
175
120
119
148
120
118
119
119
116
119
120
151
121
117
116
118
114
119
119
151
121
118
117
117
114
120
119
151
121
117
117
118
115
119
119
131
118
118
118
118
115
120
119
122
117
118
118
119
117
120
119
137
118
116
116
118
117
119
118
117
117
117
115
117
117
120
117
98
114
115
113
116
119
120
117
91
113
114
113
116
119
120
117
104
118
122
126
121
119
119
118
121
119
122
125
119
119
119
119
130
119
119
123
119
117
119
120
153
120
117
119
118
116
119
120
156
121
118
116
118
115
119
119
148
120
118
117
119
115
4
255
26
27
5
0
0
0
20
34
0
133
20
136
93
87
63
51
239
8
63
254
183
21
189
246
6
142
189
4
255
138
27
5
0
0
0
132
34
0
136
176
120
118
152
119
118
118
119
116
120
118
143
120
117
118
119
116
120
119
132
118
117
117
118
116
119
119
106
116
117
116
117
116
120
117
86
114
116
116
118
118
120
118
77
112
114
114
117
119
119
117
73
113
114
114
116
119
120
117
100
118
120
125
120
119
120
119
114
118
122
126
119
120
120
120
127
119
118
122
118
118
120
120
133
118
118
119
118
116
120
119
138
118
118
116
118
115
119
119
136
119
118
117
118
114
119
119
141
119
118
117
118
115
119
119
126
118
118
118
118
115
120
119
115
117
117
117
118
116
4
255
26
27
5
0
0
0
20
34
0
133
21
37
93
87
63
218
239
8
63
204
148
21
189
67
13
142
189
4
255
26
27
5
0
0
0
20
34
0
133
22
141
91
87
63
87
242
8
63
231
127
21
189
4
20
142
189
4
255
138
27
5
0
0
0
132
34
0
136
177
120
118
102
116
116
117
118
117
120
118
88
113
115
115
117
118
120
117
81
112
115
115
117
119
120
117
77
113
114
113
116
119
120
118
88
118
120
123
120
119
119
118
112
120
121
127
119
119
119
119
128
119
119
123
118
117
119
120
162
121
118
119
119
116
119
120
162
121
118
117
118
115
119
119
153
120
118
118
118
114
119
119
147
119
118
118
118
115
119
119
136
119
119
118
118
115
119
119
137
118
117
117
118
116
120
118
109
116
116
116
118
117
119
119
86
114
115
113
116
117
118
117
83
113
115
114
116
119
4
255
26
27
5
0
0
0
20
34
0
133
23
82
91
87
63
180
242
8
63
138
125
21
189
77
20
142
189
4
255
138
27
5
0
0
0
132
34
0
136
178
120
117
80
112
114
113
117
120
118
116
87
117
119
124
120
118
119
117
107
118
120
126
119
120
118
118
121
117
118
123
119
118
119
120
135
119
119
119
118
116
119
120
142
120
118
116
118
115
120
119
154
120
117
117
118
114
120
119
150
121
117
117
118
114
120
119
138
118
117
117
118
115
120
119
123
117
118
118
118
116
120
119
96
115
116
116
118
117
119
118
85
115
116
116
118
117
120
118
88
113
115
113
116
118
119
118
92
114
113
113
116
119
120
118
95
116
116
116
120
119
119
118
107
118
123
129
118
119
4
255
26
27
5
0
0
0
20
34
0
133
24
86
90
87
63
92
244
8
63
50
129
21
189
203
12
142
189
4
255
138
27
5
0
0
0
132
34
0
136
179
119
119
119
119
120
125
118
118
120
120
145
119
118
121
118
117
120
120
146
119
118
118
118
116
119
119
155
120
118
117
119
114
120
119
152
119
118
117
118
115
120
119
136
118
118
117
118
116
120
119
119
118
117
117
118
116
119
118
97
116
117
116
117
116
119
118
76
115
116
116
117
117
119
118
64
113
115
113
116
118
120
117
64
112
114
113
116
119
119
118
81
114
117
116
119
119
119
118
112
118
123
128
119
120
120
118
133
117
118
123
118
118
120
120
149
120
117
120
119
117
119
120
145
119
117
116
118
115
4
255
26
27
5
0
0
0
20
34
0
133
25
46
90
87
63
194
244
8
63
200
131
21
189
180
2
142
189
4
255
138
27
5
0
0
0
132
34
0
136
180
119
120
142
119
117
115
117
113
120
119
149
118
116
116
117
114
120
118
136
117
117
117
118
115
120
118
123
118
118
118
119
117
119
119
119
117
116
115
117
116
119
118
108
116
116
115
117
116
120
118
98
116
116
113
116
118
120
118
92
114
115
113
117
119
120
118
85
115
116
117
119
120
119
119
108
117
121
129
118
119
119
119
126
118
119
125
119
119
120
120
145
119
118
120
118
116
119
119
159
121
118
118
118
115
120
119
163
120
117
116
118
115
120
119
167
121
117
117
118
115
119
119
148
120
118
118
118
115
4
255
26
27
5
0
0
0
20
34
0
133
26
178
90
87
63
234
243
8
63
133
134
21
189
24
4
142
189
4
255
26
27
5
0
0
0
20
34
0
133
27
3
90
87
63
228
244
8
63
64
103
21
189
143
18
142
189
4
255
138
27
5
0
0
0
132
34
0
136
181
120
118
143
120
117
118
119
116
119
119
120
117
116
117
118
117
120
117
104
115
116
116
118
117
120
118
90
113
115
114
116
118
119
118
93
114
116
113
116
119
119
117
104
115
115
116
119
120
119
118
115
120
122
126
119
119
119
119
123
119
120
123
118
118
120
118
147
119
118
119
119
117
119
120
157
121
118
117
117
115
119
119
160
120
117
117
118
115
120
119
160
119
118
117
118
115
119
119
143
120
118
117
118
115
119
119
130
117
117
117
118
116
119
119
100
116
116
115
116
115
119
118
84
114
116
116
118
117
4
255
26
27
5
0
0
0
20
34
0
133
28
240
89
87
63
49
245
8
63
146
106
21
189
67
6
142
189
4
255
138
27
5
0
0
0
132
34
0
136
182
120
118
77
112
114
114
117
119
120
118
79
112
114
115
116
119
119
118
88
114
115
116
118
118
120
118
107
119
123
125
119
120
119
118
122
119
121
123
118
117
119
119
137
119
118
120
118
117
119
120
147
120
118
118
118
115
120
120
144
118
117
117
118
115
120
119
145
119
118
118
119
116
120
119
129
118
118
118
118
116
120
118
119
118
118
118
119
116
120
118
104
116
117
117
118
117
120
118
89
114
115
115
117
117
118
117
87
113
115
114
117
118
119
117
85
113
114
112
115
117
120
117
99
114
114
114
117
120
4
255
26
27
5
0
0
0
20
34
0
133
29
233
89
87
63
76
245
8
63
2
78
21
189
192
9
142
189
4
255
138
27
5
0
0
0
132
34
0
136
183
120
118
114
120
122
128
120
119
120
119
113
118
120
125
119
119
120
119
136
119
118
121
119
118
120
120
152
119
117
118
119
116
119
120
155
121
118
116
118
114
119
119
140
119
118
118
118
114
120
118
119
118
118
118
119
116
120
119
114
117
117
117
118
116
119
119
105
116
117
117
118
116
120
119
108
116
115
115
117
117
119
118
109
116
116
114
116
117
120
117
101
114
115
113
116
119
119
118
94
114
114
115
115
118
119
118
106
119
121
126
120
118
118
118
122
118
119
123
119
119
120
120
144
119
119
120
119
117
4
255
26
27
5
0
0
0
20
34
0
133
30
63
90
87
63
171
244
8
63
202
70
21
189
41
18
142
189
4
255
138
27
5
0
0
0
132
34
0
136
184
119
120
153
120
116
116
117
115
119
119
149
120
118
117
118
113
119
119
136
119
119
117
118
115
120
119
117
117
118
118
119
116
120
119
115
117
118
118
119
117
120
119
99
116
117
117
118
117
119
118
59
113
116
116
117
117
120
118
72
112
115
114
117
118
120
118
80
112
115
114
117
119
120
118
76
113
114
113
116
119
120
117
97
118
121
127
120
119
120
119
116
117
120
124
119
119
119
120
158
121
119
122
118
117
119
119
172
122
118
118
118
116
120
119
170
121
118
117
119
114
119
119
163
119
117
116
117
114
4
255
26
27
5
0
0
0
20
34
0
133
31
83
90
87
63
150
244
8
63
119
71
21
189
91
15
142
189
4
255
138
27
5
0
0
0
132
34
0
136
185
119
118
151
119
117
117
118
115
118
118
140
119
118
118
118
115
119
119
130
117
116
116
117
115
120
118
111
116
116
116
118
118
120
116
92
114
115
114
117
117
118
116
83
113
115
114
116
118
119
117
87
114
114
113
116
119
119
118
112
120
122
127
119
120
119
118
127
119
120
125
119
120
120
120
143
120
117
121
118
117
119
120
147
120
118
118
118
116
120
120
159
121
117
116
118
115
120
118
165
121
117
117
119
115
119
119
161
121
118
117
118
115
119
119
133
119
119
118
118
115
119
119
130
118
118
118
118
116
4
255
138
27
5
0
0
0
132
34
0
136
186
120
118
98
115
116
116
118
117
120
118
76
113
115
116
117
118
120
117
75
113
114
114
116
118
119
117
77
113
114
114
115
118
119
117
93
117
122
126
120
119
120
117
111
118
120
124
119
119
120
119
144
118
117
119
118
117
120
120
160
120
117
117
119
116
119
119
153
120
118
118
118
114
120
119
154
120
117
117
119
115
120
119
155
120
117
117
118
115
120
118
132
118
118
118
119
116
119
119
121
117
118
118
118
116
120
118
123
118
116
116
117
117
120
117
103
115
116
115
117
118
120
118
85
113
114
113
116
118
4
255
26
27
5
0
0
0
20
34
0
133
32
2
91
87
63
142
243
8
63
121
36
21
189
126
21
142
189
4
255
26
27
5
0
0
0
20
34
0
133
33
157
90
87
63
88
244
8
63
26
16
21
189
115
16
142
189
4
255
26
27
5
0
0
0
20
34
0
133
34
81
92
87
63
162
241
8
63
82
52
21
189
35
9
142
189
4
255
138
27
5
0
0
0
132
34
0
136
187
118
116
81
113
114
113
116
119
119
118
100
118
122
126
119
119
119
119
113
117
119
124
118
118
119
119
129
118
119
122
119
117
120
120
141
119
118
119
119
117
119
120
149
120
118
117
117
114
119
119
151
120
117
117
119
115
119
119
138
119
119
118
117
114
120
119
117
117
117
117
118
116
119
119
109
117
118
118
118
116
120
119
93
115
115
116
117
117
120
117
76
113
115
115
117
118
119
118
71
114
115
114
116
118
120
118
62
113
114
112
116
119
120
118
85
115
119
128
120
119
120
118
106
116
119
127
119
119
4
255
26
27
5
0
0
0
20
34
0
133
35
164
92
87
63
35
241
8
63
114
33
21
189
30
13
142
189
4
255
138
27
5
0
0
0
132
34
0
136
188
119
119
131
118
119
123
118
116
120
120
152
119
119
119
119
117
120
120
161
120
118
116
118
115
119
119
161
120
118
116
118
114
119
119
176
122
118
116
118
115
119
119
149
121
118
117
118
116
119
119
121
118
118
117
118
116
119
119
62
114
116
115
117
117
119
118
66
113
116
115
117
117
119
117
75
113
115
114
117
119
119
117
89
113
114
113
116
120
119
118
101
119
122
122
120
119
119
118
111
119
122
129
118
119
120
119
110
117
118
124
119
118
120
120
107
116
117
119
118
116
120
120
130
118
118
117
118
115
4
255
26
27
5
0
0
0
20
34
0
133
36
139
90
87
63
134
244
8
63
46
43
21
189
36
5
142
189
4
255
138
27
5
0
0
0
132
34
0
136
189
120
120
152
119
118
116
118
115
119
119
154
120
118
117
117
114
119
118
143
119
118
117
117
115
119
118
121
117
118
118
118
115
120
118
99
115
116
116
118
117
120
118
94
115
116
115
117
118
119
118
91
114
115
113
116
118
119
117
120
116
114
113
116
119
119
118
131
120
121
127
121
118
120
118
129
118
121
126
119
119
119
119
138
119
119
123
118
118
119
120
157
121
118
119
118
117
120
119
164
121
118
117
119
116
119
119
164
121
118
117
118
114
120
119
158
120
117
117
118
115
120
119
140
119
118
118
119
116
4
255
26
27
5
0
0
0
20
34
0
133
37
116
91
87
63
55
243
8
63
159
36
21
189
121
255
141
189
4
255
138
27
5
0
0
0
132
34
0
136
190
120
119
117
117
118
118
118
116
120
118
98
116
117
116
118
116
120
118
89
114
115
114
117
118
119
117
91
114
115
114
116
118
119
117
97
114
114
111
116
119
119
118
102
119
122
124
120
119
120
118
121
119
121
128
119
119
120
119
134
119
118
124
118
118
120
120
144
120
117
120
118
116
120
120
148
119
118
118
119
115
120
120
146
119
118
116
118
115
120
118
141
119
118
117
119
115
120
119
123
118
117
117
118
116
119
119
110
117
118
118
118
115
120
118
83
115
116
115
117
117
120
118
71
114
116
115
118
117
4
255
26
27
5
0
0
0
20
34
0
133
38
126
90
87
63
212
244
8
63
184
61
21
189
171
242
141
189
4
255
26
27
5
0
0
0
20
34
0
133
39
63
89
87
63
187
246
8
63
155
42
21
189
29
251
141
189
4
255
138
27
5
0
0
0
132
34
0
136
191
119
117
72
113
114
112
114
117
118
116
86
113
114
113
116
118
119
118
98
118
119
123
120
119
120
118
116
119
122
127
120
119
119
119
134
119
119
123
119
118
120
119
118
117
118
119
118
116
119
120
129
118
118
117
117
114
120
120
145
119
118
117
118
115
119
119
153
120
118
118
118
115
120
119
142
119
118
117
118
116
119
119
128
118
118
118
117
115
119
119
98
116
117
115
117
117
120
118
79
114
115
114
117
118
119
118
77
112
115
113
117
118
121
117
93
114
115
113
116
119
120
118
103
117
120
122
119
120
4
255
26
27
5
0
0
0
20
34
0
133
40
217
88
87
63
63
247
8
63
177
7
21
189
234
10
142
189
4
255
138
27
5
0
0
0
132
34
0
136
192
119
118
116
121
121
129
119
119
120
119
142
120
118
125
119
118
120
120
151
120
117
120
118
116
120
120
160
120
117
117
118
115
120
119
160
120
117
116
118
115
119
119
158
121
118
117
118
115
120
119
141
120
117
117
118
116
120
118
124
117
117
117
118
116
119
118
106
116
116
116
118
117
119
118
96
115
116
115
117
117
120
118
79
115
115
113
117
119
119
118
94
115
114
111
116
119
120
117
101
117
119
121
119
120
120
117
118
119
122
129
119
120
120
119
145
120
118
124
118
118
120
120
149
121
117
120
118
116
4
255
26
27
5
0
0
0
20
34
0
133
41
63
88
87
63
71
248
8
63
55
15
21
189
230
3
142
189
4
255
138
27
5
0
0
0
132
34
0
136
193
120
120
148
119
117
117
118
115
120
119
136
118
118
116
118
115
119
119
141
119
118
116
117
114
119
119
140
119
119
117
117
115
119
119
124
117
117
116
117
115
119
119
103
116
116
115
117
115
120
118
98
115
115
115
118
118
120
118
90
114
114
113
116
117
120
117
81
112
113
113
116
119
120
116
91
115
116
117
118
119
119
117
112
117
121
126
119
119
119
119
136
119
119
124
118
117
119
120
153
120
118
120
117
115
120
119
167
120
116
116
117
114
119
119
165
121
118
117
119
114
119
119
150
120
118
118
118
115
4
255
26
27
5
0
0
0
20
34
0
133
42
100
89
87
63
154
246
8
63
166
6
21
189
49
254
141
189
4
255
138
27
5
0
0
0
132
34
0
136
194
120
119
127
118
117
117
118
116
119
119
112
117
116
116
117
115
118
118
99
115
116
116
118
116
119
118
98
115
116
115
116
116
119
118
92
113
115
114
116
118
120
117
90
112
114
113
116
120
120
117
99
116
116
120
119
120
119
118
114
121
122
128
119
120
120
119
136
119
119
124
119
119
120
119
154
120
117
119
117
116
120
120
151
120
117
117
118
116
120
118
150
120
117
117
119
115
119
119
147
119
118
117
119
114
119
119
139
119
119
117
118
115
120
119
125
118
118
118
118
116
119
118
110
117
117
117
118
116
4
255
26
27
5
0
0
0
20
34
0
133
43
118
89
87
63
115
246
8
63
128
244
20
189
165
5
142
189
4
255
138
27
5
0
0
0
132
34
0
136
195
120
117
87
114
116
117
118
118
120
118
77
112
114
113
115
117
119
117
89
113
114
114
116
118
119
116
91
115
115
115
119
120
119
118
108
119
124
127
119
119
119
119
122
118
120
122
118
118
119
120
138
118
118
120
118
116
119
120
152
120
118
118
118
115
120
119
154
120
118
117
119
115
120
120
148
119
118
117
118
115
119
119
128
118
118
118
119
115
120
119
118
118
117
117
118
116
119
119
102
117
117
116
118
117
119
119
80
114
116
114
117
117
120
117
68
112
115
114
117
119
119
118
71
113
115
113
116
119
4
255
26
27
5
0
0
0
20
34
0
133
44
174
88
87
63
171
247
8
63
120
4
21
189
37
2
142
189
4
255
26
27
5
0
0
0
20
34
0
133
45
148
91
87
63
22
243
8
63
82
4
21
189
143
3
142
189
4
255
138
27
5
0
0
0
132
34
0
136
196
119
118
57
114
115
120
118
119
119
118
79
117
123
127
119
119
119
119
106
117
119
122
117
117
119
119
127
119
118
119
118
116
119
120
145
120
118
116
118
115
119
120
156
121
118
116
118
114
119
119
150
120
117
118
118
114
119
119
136
119
119
118
117
115
120
118
119
118
118
118
119
116
120
119
105
116
116
116
118
117
119
118
102
117
117
115
117
117
119
118
101
116
116
114
116
118
120
116
92
114
115
114
116
119
120
117
106
115
115
115
119
120
120
118
115
119
122
127
119
119
120
118
121
118
120
125
119
119
4
255
26
27
5
0
0
0
20
34
0
133
46
209
92
87
63
40
241
8
63
65
17
21
189
66
255
141
189
4
255
138
27
5
0
0
0
132
34
0
136
197
120
120
133
118
118
121
118
117
119
120
148
120
118
116
118
115
119
120
161
119
117
115
117
113
119
119
158
121
117
117
118
114
120
119
140
118
116
116
117
115
119
119
114
117
118
118
118
115
119
118
99
116
117
117
118
117
119
119
95
116
117
116
117
117
119
118
89
113
116
116
116
118
119
118
93
115
116
114
116
119
119
118
91
115
116
114
118
119
120
118
115
119
119
125
119
120
120
118
126
119
120
123
119
119
119
120
137
119
119
120
118
116
119
120
149
121
119
117
118
115
120
119
160
121
117
117
118
114
4
255
26
27
5
0
0
0
20
34
0
133
47
212
90
87
63
118
244
8
63
27
7
21
189
242
246
141
189
4
255
138
27
5
0
0
0
132
34
0
136
198
119
119
162
121
118
117
118
115
120
119
146
119
118
118
119
116
120
118
134
119
118
118
119
116
119
119
119
118
117
116
116
115
120
117
102
116
116
116
118
117
119
118
99
115
116
115
116
117
119
118
90
114
115
114
116
118
120
117
90
113
114
114
119
120
119
117
106
119
123
128
118
119
119
118
116
118
120
125
119
118
119
120
145
120
117
120
118
117
120
120
165
121
117
117
118
116
120
118
170
121
118
117
119
114
120
118
160
120
118
118
118
115
120
119
150
120
117
117
118
116
119
119
130
118
118
118
118
116
4
255
26
27
5
0
0
0
20
34
0
133
48
40
88
87
63
170
248
8
63
55
23
21
189
145
242
141
189
4
255
138
27
5
0
0
0
132
34
0
136
199
120
118
122
117
117
118
119
116
120
118
104
115
116
117
118
118
120
117
95
115
115
115
116
118
120
116
87
113
115
115
117
119
119
117
93
114
115
113
117
118
120
118
97
119
122
125
119
119
119
118
104
117
121
125
118
119
120
119
124
118
119
122
119
117
120
120
139
119
118
118
119
117
120
120
152
119
118
116
118
115
120
119
151
120
117
117
118
115
120
119
152
119
118
118
119
116
120
119
135
119
118
117
118
116
119
119
108
116
118
117
117
116
120
117
103
116
116
116
118
117
120
118
97
114
115
114
117
118
4
255
26
27
5
0
0
0
20
34
0
133
49
190
87
87
63
60
249
8
63
4
6
21
189
0
252
141
189
4
255
138
27
5
0
0
0
132
34
0
136
200
120
118
90
113
114
113
116
119
119
118
97
115
115
114
116
119
120
117
106
118
122
125
120
119
120
118
116
118
120
122
118
118
119
119
135
119
118
120
118
118
119
120
151
121
118
118
118
116
120
119
156
120
117
117
118
114
120
119
147
120
117
117
118
115
120
118
133
119
118
118
119
115
119
119
121
118
118
118
118
115
119
119
111
118
118
118
118
116
119
118
77
114
116
117
118
117
120
118
73
113
115
115
117
118
120
118
77
113
114
113
116
119
119
118
101
115
115
113
116
119
120
118
118
120
121
127
120
119
4
255
138
27
5
0
0
0
132
34
0
136
201
120
119
126
119
120
125
119
119
119
120
145
120
118
120
118
117
119
120
156
121
118
118
118
116
119
120
154
120
117
116
117
113
119
119
145
119
118
118
118
114
120
119
136
119
118
117
118
115
119
119
126
119
118
118
118
115
120
119
110
117
117
118
118
117
120
118
79
114
116
116
118
117
119
118
74
113
116
115
116
117
120
118
80
113
114
113
116
119
120
117
73
113
114
113
116
119
120
118
95
118
119
128
120
119
120
117
112
117
121
126
119
120
119
119
154
120
119
122
118
117
119
120
170
121
118
119
118
115
4
255
26
27
5
0
0
0
20
34
0
133
50
131
89
87
63
143
246
8
63
18
247
20
189
33
249
141
189
4
255
26
27
5
0
0
0
20
34
0
133
51
213
89
87
63
22
246
8
63
245
244
20
189
16
248
141
189
4
255
26
27
5
0
0
0
20
34
0
133
52
245
89
87
63
10
246
8
63
34
20
21
189
165
230
141
189
4
255
138
27
5
0
0
0
132
34
0
136
202
120
119
170
121
118
117
119
115
120
119
161
120
118
117
119
114
120
119
153
119
118
117
118
115
119
119
129
118
118
118
118
115
119
118
111
117
118
118
118
116
119
119
95
116
115
114
116
115
119
117
88
114
116
114
116
116
119
117
96
114
115
113
114
117
119
117
93
114
114
113
115
118
119
118
107
120
121
128
120
117
120
119
121
118
121
125
119
119
119
120
140
119
118
121
118
117
119
119
149
120
118
119
119
116
119
119
148
120
118
117
118
114
120
119
156
120
117
117
118
115
120
118
172
121
118
118
119
115
4
255
26
27
5
0
0
0
20
34
0
133
53
251
88
87
63
127
247
8
63
157
39
21
189
113
230
141
189
4
255
138
27
5
0
0
0
132
34
0
136
203
119
119
148
120
118
117
118
116
119
119
122
118
118
117
117
115
120
118
94
116
116
116
117
117
119
117
83
113
115
115
117
118
118
116
80
112
114
113
117
119
119
117
77
113
114
113
116
119
119
118
93
117
120
125
118
119
120
117
98
117
121
126
119
119
119
119
109
116
117
121
118
117
119
119
128
118
118
118
118
114
118
118
133
118
118
117
118
115
120
119
138
118
118
117
118
115
120
119
143
120
117
118
119
116
119
119
141
120
117
117
118
116
119
119
119
118
118
118
119
116
120
118
87
115
115
116
117
117
4
255
26
27
5
0
0
0
20
34
0
133
54
182
88
87
63
6
248
8
63
136
30
21
189
91
226
141
189
4
255
138
27
5
0
0
0
132
34
0
136
204
120
118
76
113
115
115
117
118
120
118
80
112
115
114
117
119
119
117
96
114
115
113
116
118
120
118
103
119
121
126
120
119
119
119
118
120
120
126
117
118
120
118
139
118
118
122
118
117
119
120
153
120
117
118
117
115
118
118
155
119
118
117
118
115
119
119
153
120
118
117
118
114
120
119
144
119
118
117
118
115
119
119
129
119
119
117
118
115
120
118
115
117
118
118
119
117
120
119
118
117
116
115
117
117
119
118
111
117
117
115
116
117
120
117
97
114
115
114
117
118
120
116
98
114
114
113
117
120
4
255
26
27
5
0
0
0
20
34
0
133
55
214
88
87
63
21
248
8
63
15
49
21
189
125
205
141
189
4
255
138
27
5
0
0
0
132
34
0
136
205
120
118
104
119
122
123
120
119
120
118
116
119
121
126
119
119
120
120
127
118
118
122
118
118
120
120
139
118
118
119
119
117
119
119
140
119
118
117
119
115
118
118
138
118
117
116
118
114
118
118
145
119
118
117
117
114
120
118
129
116
116
116
117
115
120
118
120
117
118
118
119
116
120
118
87
116
116
115
117
117
120
117
80
113
115
115
118
118
119
118
84
114
116
113
116
118
120
117
83
113
114
113
116
119
120
118
98
117
117
126
120
119
119
119
107
118
122
126
119
119
119
120
133
119
119
122
118
118
4
255
138
27
5
0
0
0
132
34
0
136
206
120
119
161
120
118
119
119
117
119
119
165
121
118
118
118
115
120
119
150
119
118
117
118
115
120
119
157
120
117
117
118
115
119
119
144
119
119
118
118
115
119
118
124
117
117
117
118
116
119
118
97
115
116
116
117
116
118
117
95
115
116
115
118
117
120
118
89
114
115
114
117
119
119
117
78
114
115
113
116
119
120
118
80
115
120
124
119
120
120
119
105
116
121
127
119
119
119
119
127
119
118
122
117
116
119
119
147
120
118
120
118
116
120
119
143
120
118
116
118
115
120
118
141
119
118
117
118
115
4
255
26
27
5
0
0
0
20
34
0
133
56
127
89
87
63
16
247
8
63
109
40
21
189
9
207
141
189
4
255
26
27
5
0
0
0
20
34
0
133
57
243
90
87
63
209
244
8
63
195
25
21
189
108
208
141
189
4
255
26
27
5
0
0
0
20
34
0
133
58
12
89
87
63
214
247
8
63
252
52
21
189
78
199
141
189
4
255
138
27
5
0
0
0
132
34
0
136
207
119
119
145
119
118
116
117
114
120
118
133
119
118
118
119
116
120
119
125
118
117
117
117
115
120
118
107
116
116
116
117
116
120
118
96
114
115
115
117
118
119
118
86
113
114
113
116
118
118
116
83
113
113
113
116
119
118
117
93
117
118
120
119
119
119
118
110
118
122
128
119
119
119
119
127
119
119
125
119
118
119
120
119
118
119
120
118
116
120
120
138
119
118
118
119
116
119
120
147
120
117
116
118
114
120
119
142
120
117
117
118
115
119
119
129
118
118
118
118
115
119
119
118
118
118
118
119
116
4
255
26
27
5
0
0
0
20
34
0
133
59
97
89
87
63
78
247
8
63
150
46
21
189
196
201
141
189
4
255
138
27
5
0
0
0
132
34
0
136
208
119
119
112
117
117
116
117
116
118
117
96
114
115
115
117
117
119
117
94
115
116
114
116
118
119
118
95
115
115
112
116
118
120
117
103
117
118
119
120
119
120
118
132
119
121
128
119
119
119
119
137
119
120
124
118
118
120
120
153
121
118
120
118
116
119
119
158
121
118
118
119
116
119
119
164
121
118
116
118
114
119
119
166
122
118
116
118
115
120
119
149
120
117
117
118
116
120
118
131
118
118
118
119
117
120
118
110
117
117
116
118
117
119
118
93
115
116
116
118
118
119
118
91
114
116
115
116
118
4
255
26
27
5
0
0
0
20
34
0
133
60
178
90
87
63
71
245
8
63
136
31
21
189
201
202
141
189
4
255
138
27
5
0
0
0
132
34
0
136
209
119
118
79
114
115
113
115
119
120
118
94
117
116
116
119
119
119
119
115
119
122
126
119
119
120
118
131
119
119
124
119
118
120
119
151
120
118
119
119
117
119
119
155
120
118
117
119
115
119
120
159
122
118
117
118
114
119
119
154
120
118
117
118
114
119
119
139
119
119
118
118
115
119
119
119
118
118
118
118
116
119
118
99
116
117
117
118
116
120
118
93
115
116
116
118
118
120
118
88
113
115
114
117
119
120
117
94
114
114
114
117
119
120
117
87
116
115
117
120
119
119
118
105
118
123
128
118
119
4
255
26
27
5
0
0
0
20
34
0
133
61
176
88
87
63
145
248
8
63
96
21
21
189
128
197
141
189
4
255
138
27
5
0
0
0
132
34
0
136
210
119
119
119
118
120
124
118
118
120
119
137
119
118
120
119
117
119
120
154
120
117
117
118
116
119
119
164
121
118
117
118
114
120
119
162
120
117
117
118
115
120
119
143
120
117
117
118
115
118
118
112
116
117
118
118
115
119
119
100
116
116
115
116
115
120
117
88
114
116
116
118
117
119
118
79
115
116
114
116
118
119
118
83
115
114
113
116
119
119
118
90
114
114
114
116
118
119
118
104
116
121
125
118
119
119
119
121
117
119
122
117
117
119
120
134
119
119
120
118
116
120
120
145
119
118
117
118
116
4
255
26
27
5
0
0
0
20
34
0
133
62
159
90
87
63
139
245
8
63
249
32
21
189
107
193
141
189
4
255
26
27
5
0
0
0
20
34
0
133
63
111
89
87
63
162
247
8
63
87
34
21
189
22
179
141
189
4
255
138
27
5
0
0
0
132
34
0
136
211
119
119
148
120
118
117
119
114
119
119
152
120
118
117
118
114
120
118
136
118
118
118
119
116
119
119
119
118
117
117
118
116
119
119
102
117
117
117
118
116
119
118
96
115
116
116
118
117
120
117
89
114
116
115
117
118
118
116
83
112
114
112
116
118
119
118
84
113
115
113
117
118
119
118
111
120
122
128
118
118
120
118
135
119
120
126
119
119
119
120
152
120
118
121
118
116
120
120
152
119
118
119
119
116
119
120
164
121
118
116
118
114
120
120
158
120
117
117
118
116
119
119
146
120
117
117
118
116
4
255
26
27
5
0
0
0
20
34
0
133
64
195
88
87
63
190
248
8
63
206
254
20
189
86
185
141
189
4
255
138
27
5
0
0
0
132
34
0
136
212
120
119
131
118
117
117
118
116
120
118
113
117
117
116
117
116
119
118
95
116
116
115
117
117
120
117
85
114
115
114
117
119
120
117
89
116
116
112
116
119
119
117
96
116
116
113
117
119
120
118
109
117
121
129
119
120
119
119
125
118
120
126
118
118
120
120
154
121
117
121
118
117
120
120
163
121
118
118
119
116
119
120
158
121
118
117
118
114
120
119
158
121
118
117
118
115
120
120
146
119
118
117
118
116
119
119
129
118
118
118
119
116
120
119
110
117
117
117
118
117
120
118
86
115
116
115
117
117
4
255
26
27
5
0
0
0
20
34
0
133
65
12
89
87
63
110
248
8
63
108
17
21
189
191
171
141
189
4
255
138
27
5
0
0
0
132
34
0
136
213
120
118
79
113
115
114
116
118
119
117
74
113
116
114
116
119
119
118
73
113
116
114
116
119
120
118
86
117
121
127
120
119
119
118
98
117
119
125
119
118
119
120
140
119
119
120
118
117
120
120
161
120
118
118
119
116
119
119
154
120
118
117
118
114
118
118
156
120
117
117
118
114
120
118
147
118
117
117
117
115
119
119
131
118
118
118
118
115
119
119
113
115
115
116
117
115
120
118
102
116
117
117
118
117
119
117
94
114
116
115
117
118
120
117
96
114
115
113
116
119
120
117
94
114
114
113
116
119
4
255
26
27
5
0
0
0
20
34
0
133
66
198
88
87
63
232
248
8
63
65
44
21
189
46
162
141
189
4
255
26
27
5
0
0
0
20
34
0
133
67
108
87
87
63
37
251
8
63
178
34
21
189
79
157
141
189
4
255
138
27
5
0
0
0
132
34
0
136
214
119
118
98
119
123
129
119
119
119
119
110
119
120
126
119
119
119
120
131
119
118
122
118
118
120
120
143
119
118
119
119
117
119
120
140
120
118
116
118
114
120
118
148
120
117
117
119
115
119
119
142
120
118
116
118
115
120
119
120
117
118
117
118
116
120
118
104
114
116
115
117
115
119
119
91
115
117
116
117
117
119
118
87
114
116
115
116
117
119
118
86
114
115
113
116
118
120
117
85
113
114
113
116
119
120
117
91
117
121
127
120
119
119
119
107
118
121
126
118
118
119
120
130
119
119
121
118
117
4
255
138
27
5
0
0
0
132
34
0
136
215
119
120
153
121
118
119
118
116
120
120
159
121
118
117
119
115
119
119
167
122
118
117
119
114
119
119
158
121
118
117
119
115
119
119
134
119
119
117
118
116
119
119
117
118
118
118
118
116
119
119
87
115
116
115
117
117
119
118
83
114
116
115
117
117
120
117
77
112
114
113
116
118
119
117
83
114
115
113
115
118
120
118
94
117
120
127
120
119
119
117
113
117
118
125
119
119
119
119
125
118
119
122
119
117
119
120
141
120
118
119
118
116
120
120
144
119
118
117
119
115
119
119
153
120
118
117
119
114
4
255
26
27
5
0
0
0
20
34
0
133
68
21
86
87
63
56
253
8
63
233
13
21
189
235
164
141
189
4
255
26
27
5
0
0
0
20
34
0
133
69
108
87
87
63
28
251
8
63
33
8
21
189
140
166
141
189
4
255
138
27
5
0
0
0
132
34
0
136
216
120
118
149
120
118
118
119
115
119
119
133
119
118
118
118
115
120
118
107
116
118
118
119
117
119
119
80
114
116
116
117
117
120
118
83
114
115
115
117
118
120
116
85
114
115
114
117
119
119
117
85
114
114
113
115
119
119
118
99
119
124
128
119
119
119
118
118
119
122
125
118
119
120
120
136
118
119
122
119
118
119
119
149
120
117
119
119
116
120
119
155
121
117
116
118
114
119
120
158
121
117
116
118
114
120
119
144
119
118
117
118
115
119
119
133
119
118
118
118
115
119
119
127
119
118
118
118
115
4
255
26
27
5
0
0
0
20
34
0
133
70
162
86
87
63
104
252
8
63
128
27
21
189
52
158
141
189
4
255
138
27
5
0
0
0
132
34
0
136
217
119
118
107
116
117
117
117
117
120
118
97
114
114
114
116
117
120
118
93
112
114
113
116
119
120
117
108
112
113
112
116
120
120
118
119
123
118
126
120
119
120
118
125
123
122
126
119
120
120
119
138
120
118
123
119
118
120
120
171
121
117
118
118
116
120
119
167
121
118
117
119
115
119
119
166
121
118
116
117
114
119
119
161
120
117
117
118
115
119
119
143
120
116
116
116
114
120
119
124
117
117
117
118
116
119
119
108
116
117
116
117
117
119
118
96
114
116
115
116
117
120
118
91
113
114
113
116
118
4
255
26
27
5
0
0
0
20
34
0
133
71
248
84
87
63
8
255
8
63
80
254
20
189
20
165
141
189
4
255
26
27
5
0
0
0
20
34
0
133
72
29
86
87
63
99
253
8
63
232
232
20
189
58
161
141
189
4
255
138
27
5
0
0
0
132
34
0
136
218
120
116
87
113
114
113
116
120
120
117
100
119
119
123
120
118
119
119
112
120
121
127
118
118
119
119
124
120
119
124
118
118
120
119
132
118
119
120
119
117
119
120
148
120
118
117
118
115
120
119
154
120
117
116
118
114
120
119
132
118
118
117
118
115
120
119
117
118
118
117
118
115
119
118
109
117
118
118
118
115
119
118
87
115
117
115
117
115
119
118
76
114
116
115
116
117
119
118
84
113
114
113
114
116
118
117
86
113
114
113
115
118
119
117
101
119
119
126
121
118
119
118
113
118
121
127
119
118
4
255
26
27
5
0
0
0
20
34
0
133
73
128
87
87
63
69
251
8
63
194
22
21
189
56
145
141
189
4
255
138
27
5
0
0
0
132
34
0
136
219
119
120
123
118
118
122
117
116
118
119
138
118
118
119
119
116
119
120
152
119
118
115
117
114
120
119
146
119
118
116
118
115
119
119
136
118
117
115
117
114
118
118
120
117
118
117
117
114
120
118
117
117
118
118
119
116
119
118
114
117
117
116
118
117
120
118
102
116
116
115
117
118
120
118
87
113
114
112
115
118
119
117
108
115
115
112
115
119
119
117
137
121
118
124
120
119
119
118
127
121
122
128
118
118
119
119
131
119
119
124
119
117
119
120
136
119
119
120
117
115
120
119
140
119
119
117
119
115
4
255
26
27
5
0
0
0
20
34
0
133
74
142
87
87
63
17
251
8
63
222
14
21
189
141
154
141
189
4
255
138
27
5
0
0
0
132
34
0
136
220
120
120
140
120
117
116
118
115
119
119
140
119
118
118
118
115
119
119
123
118
118
118
118
115
120
118
114
117
118
118
119
116
119
119
83
115
116
116
117
117
120
118
73
113
116
116
118
118
119
117
80
113
115
114
116
118
120
116
86
113
114
113
116
119
119
118
109
119
122
124
120
119
120
118
119
119
121
126
119
119
120
119
137
118
118
123
119
118
120
119
149
120
117
120
118
117
120
119
152
119
118
117
119
115
119
120
150
120
118
116
118
114
119
119
147
120
117
116
118
115
119
119
131
119
118
118
118
115
4
255
26
27
5
0
0
0
20
34
0
133
75
112
88
87
63
181
249
8
63
237
255
20
189
211
156
141
189
4
255
26
27
5
0
0
0
20
34
0
133
76
56
89
87
63
127
248
8
63
122
226
20
189
176
163
141
189
4
255
138
27
5
0
0
0
132
34
0
136
221
119
119
115
117
118
118
117
115
120
118
88
114
116
117
118
117
119
118
86
114
116
115
117
118
120
118
93
113
115
113
116
118
120
118
93
113
114
113
116
119
120
118
108
119
117
124
120
119
119
118
118
123
122
127
118
119
120
119
135
121
117
122
118
118
120
120
176
121
118
119
119
117
119
120
164
121
118
117
118
115
119
120
154
119
118
117
118
114
120
119
142
118
117
116
117
114
119
119
137
118
116
116
117
115
119
119
129
118
118
118
119
116
120
119
111
116
116
115
117
117
119
118
93
115
116
116
117
118
4
255
26
27
5
0
0
0
20
34
0
133
77
211
88
87
63
29
249
8
63
92
247
20
189
67
158
141
189
4
255
138
27
5
0
0
0
132
34
0
136
222
119
118
79
114
116
113
116
118
119
118
82
113
115
113
115
118
120
118
93
118
118
115
119
120
119
119
104
118
122
128
119
119
120
119
110
117
119
125
119
118
119
120
100
117
118
120
118
116
120
120
123
117
118
118
118
115
120
120
144
119
118
117
119
115
120
119
131
118
118
117
118
115
119
119
119
118
118
118
118
115
119
119
108
117
117
117
117
114
119
118
87
115
116
116
117
115
120
117
79
114
116
116
118
118
119
118
79
114
116
115
116
118
120
118
79
113
113
113
116
119
120
117
86
115
117
119
120
118
4
255
26
27
5
0
0
0
20
34
0
133
78
245
87
87
63
102
250
8
63
136
246
20
189
44
163
141
189
4
255
138
27
5
0
0
0
132
34
0
136
223
119
118
107
118
122
126
118
119
119
118
117
117
118
122
118
119
119
120
138
119
119
119
118
116
120
120
150
120
117
117
118
116
120
119
157
121
118
118
119
114
120
119
156
120
118
118
119
115
119
119
148
120
118
117
118
115
120
119
135
120
117
117
118
116
120
118
113
117
117
117
118
117
120
118
94
115
116
116
118
117
119
118
90
114
115
114
117
119
119
118
96
114
115
113
115
118
119
118
97
116
117
118
119
120
119
118
116
119
123
128
118
119
118
118
131
118
119
125
119
119
120
119
157
119
118
120
118
117
4
255
26
27
5
0
0
0
20
34
0
133
79
140
87
87
63
36
251
8
63
195
212
20
189
27
166
141
189
4
255
138
27
5
0
0
0
132
34
0
136
224
119
120
171
122
118
117
118
116
120
119
170
121
118
117
119
115
120
119
185
122
117
116
118
115
119
119
161
121
118
117
118
115
119
119
134
119
119
118
118
115
120
119
112
116
117
117
118
117
120
117
100
115
116
116
118
117
120
117
94
114
115
114
117
119
119
118
90
114
115
113
116
119
119
117
100
115
116
119
119
119
120
118
123
119
122
126
119
119
120
118
129
118
119
124
119
119
119
119
138
119
119
120
117
116
118
119
149
120
117
117
118
115
120
119
156
120
117
117
118
115
119
119
152
120
118
117
118
115
4
255
138
27
5
0
0
0
132
34
0
136
225
119
119
130
119
119
117
118
115
120
119
111
117
117
118
118
116
119
119
107
117
117
116
117
116
119
119
94
116
117
115
117
117
119
118
87
115
116
114
116
118
120
117
82
113
114
113
117
119
119
118
100
116
114
114
117
119
120
118
107
118
123
127
119
120
120
119
120
117
120
124
119
119
120
120
141
120
117
120
118
117
120
120
146
119
118
118
119
116
119
119
150
120
117
116
117
113
119
119
151
120
116
115
117
114
119
118
146
119
118
117
118
116
120
119
131
118
117
117
118
116
119
119
110
117
118
117
118
116
4
255
26
27
5
0
0
0
20
34
0
133
80
11
86
87
63
143
253
8
63
196
205
20
189
150
164
141
189
4
255
26
27
5
0
0
0
20
34
0
133
81
124
86
87
63
222
252
8
63
120
186
20
189
152
169
141
189
4
255
26
27
5
0
0
0
20
34
0
133
82
188
85
87
63
47
254
8
63
172
149
20
189
235
170
141
189
4
255
138
27
5
0
0
0
132
34
0
136
226
119
119
96
114
116
116
118
118
120
117
83
113
115
113
117
119
120
117
89
113
115
112
116
119
120
117
85
113
115
113
118
120
119
118
99
120
123
130
119
119
120
119
112
117
120
126
119
119
120
120
126
119
118
121
118
116
120
119
142
119
118
119
118
116
120
119
150
120
117
116
118
114
120
119
149
120
117
116
118
114
120
118
133
119
118
117
118
116
119
119
118
118
118
117
118
116
120
119
102
116
117
117
118
117
120
118
96
115
116
115
117
117
120
118
82
113
115
113
116
118
120
117
87
113
114
113
116
119
4
255
26
27
5
0
0
0
20
34
0
133
83
162
85
87
63
91
254
8
63
111
154
20
189
227
168
141
189
4
255
138
27
5
0
0
0
132
34
0
136
227
119
117
89
113
114
113
117
119
119
116
110
119
124
128
120
118
119
118
124
119
121
124
118
118
120
119
140
119
118
119
118
116
120
120
149
120
117
117
118
116
119
120
157
121
118
117
118
114
120
120
161
120
117
117
119
115
120
120
146
119
118
118
118
116
120
119
121
117
118
117
118
116
120
119
112
116
117
117
118
117
119
119
98
115
116
116
117
117
120
118
87
114
115
114
117
118
120
117
75
112
114
113
116
119
120
118
84
113
114
113
117
120
119
118
102
119
122
127
118
118
120
118
123
119
121
125
119
120
4
255
26
27
5
0
0
0
20
34
0
133
84
115
87
87
63
93
251
8
63
29
172
20
189
157
172
141
189
4
255
138
27
5
0
0
0
132
34
0
136
228
120
120
135
119
118
121
119
118
119
120
141
120
118
118
118
116
120
119
150
120
117
116
118
115
120
119
151
121
116
117
118
114
119
119
143
120
118
118
118
115
119
119
124
118
118
117
118
115
119
119
106
117
117
117
118
116
119
118
100
116
117
117
117
117
119
118
94
115
116
114
116
117
119
118
100
115
116
114
116
118
119
117
90
114
115
113
116
119
119
118
98
118
120
127
119
119
119
118
114
118
120
125
119
119
120
118
142
119
118
120
118
117
120
120
149
119
118
118
118
116
119
119
157
121
118
117
118
114
4
255
26
27
5
0
0
0
20
34
0
133
85
132
88
87
63
186
249
8
63
174
145
20
189
233
176
141
189
4
255
138
27
5
0
0
0
132
34
0
136
229
120
119
153
120
118
117
118
115
120
119
150
120
117
117
118
116
120
119
126
118
118
117
118
116
120
119
110
117
118
117
118
116
119
118
97
115
117
116
117
117
119
118
89
114
116
115
116
117
119
118
90
114
115
113
116
118
119
117
102
115
115
114
116
119
119
118
102
119
123
129
120
119
120
118
121
118
121
126
119
120
120
119
144
119
118
121
118
117
120
120
150
119
118
118
118
116
119
119
152
120
118
117
118
114
120
119
155
119
117
116
117
114
120
119
142
119
117
117
118
115
120
118
128
118
118
118
119
116
4
255
26
27
5
0
0
0
20
34
0
133
86
71
88
87
63
5
250
8
63
210
151
20
189
86
180
141
189
4
255
26
27
5
0
0
0
20
34
0
133
87
199
88
87
63
94
249
8
63
52
169
20
189
200
167
141
189
4
255
138
27
5
0
0
0
132
34
0
136
230
119
119
120
117
118
118
118
116
120
118
103
115
116
116
118
118
119
118
91
114
116
115
116
117
119
117
87
114
115
114
117
118
120
117
78
113
113
113
116
119
119
118
87
119
123
128
119
119
119
118
102
118
122
126
119
119
120
120
142
119
118
122
119
118
119
120
163
121
118
119
118
116
120
120
156
120
117
116
118
115
119
119
146
119
118
117
118
115
119
119
145
119
118
118
119
114
120
119
132
119
118
117
118
115
119
119
114
117
118
118
119
116
119
119
91
115
116
115
117
116
119
118
85
114
116
114
116
117
4
255
26
27
5
0
0
0
20
34
0
133
88
221
87
87
63
224
250
8
63
222
144
20
189
172
169
141
189
4
255
138
27
5
0
0
0
132
34
0
136
231
119
117
76
112
113
113
116
118
120
117
85
113
113
112
116
119
120
118
104
117
119
127
120
119
118
118
114
118
123
126
119
118
119
120
134
120
118
121
117
116
121
119
144
119
119
118
118
116
120
119
150
120
118
117
119
115
119
119
152
120
117
117
117
114
120
118
151
120
118
118
119
115
120
119
139
119
118
117
118
116
119
119
119
118
118
118
117
116
119
118
99
115
116
116
118
117
119
119
92
115
116
114
116
117
119
118
84
114
115
114
116
118
120
117
88
113
114
112
116
120
120
117
99
118
121
129
120
119
4
255
26
27
5
0
0
0
20
34
0
133
89
33
88
87
63
118
250
8
63
162
129
20
189
97
173
141
189
4
255
138
27
5
0
0
0
132
34
0
136
232
119
118
104
117
122
128
119
119
120
119
123
118
119
124
119
118
120
120
141
119
118
120
118
116
119
120
147
120
117
116
118
115
119
119
149
120
118
117
118
114
119
119
148
120
118
117
119
115
120
119
131
119
118
117
118
116
120
119
115
117
118
118
118
117
119
118
95
116
117
116
118
117
119
118
87
115
116
114
117
118
119
117
86
114
115
114
117
119
119
118
92
114
115
113
115
118
120
118
107
118
118
126
120
119
120
119
116
119
121
127
119
120
118
119
129
118
119
122
118
118
120
118
146
118
117
118
118
116
4
255
26
27
5
0
0
0
20
34
0
133
90
247
88
87
63
58
249
8
63
74
133
20
189
100
167
141
189
4
255
138
27
5
0
0
0
132
34
0
136
233
118
118
154
119
118
116
118
115
120
119
150
120
118
117
119
115
120
118
151
120
118
117
119
116
120
119
130
118
118
117
118
116
119
119
114
117
118
118
118
116
119
118
66
114
117
117
117
117
120
118
57
112
115
115
117
118
120
116
70
113
115
114
117
119
120
117
70
113
114
113
116
119
120
118
84
117
117
125
120
119
120
117
106
117
121
126
119
119
119
119
120
118
119
123
118
117
120
120
141
120
118
119
118
117
120
119
154
120
118
117
119
116
119
118
159
120
117
116
118
114
119
119
151
120
116
116
116
113
4
255
26
27
5
0
0
0
20
34
0
133
91
26
89
87
63
35
249
8
63
8
88
20
189
133
171
141
189
4
255
138
27
5
0
0
0
132
34
0
136
234
119
119
124
118
118
118
117
115
120
119
112
117
117
117
118
116
119
118
86
115
117
117
117
117
120
118
87
114
115
115
117
118
120
117
85
113
115
114
117
119
119
118
93
114
115
114
116
119
120
118
91
117
119
126
120
119
119
118
116
119
122
127
120
118
120
119
138
118
118
122
118
118
119
119
159
121
118
119
119
117
120
120
174
121
117
116
118
115
120
119
175
122
117
116
117
113
119
119
163
121
118
118
118
115
119
119
152
120
118
118
118
115
120
118
139
117
116
116
117
115
120
119
122
117
116
115
116
116
4
255
26
27
5
0
0
0
20
34
0
133
92
146
90
87
63
235
246
8
63
135
93
20
189
123
164
141
189
4
255
26
27
5
0
0
0
20
34
0
133
93
8
90
87
63
221
247
8
63
31
118
20
189
234
151
141
189
4
255
138
27
5
0
0
0
132
34
0
136
235
118
117
103
115
116
115
117
118
119
118
97
114
115
113
116
118
118
116
94
113
114
113
116
119
119
116
105
116
116
125
120
119
119
118
126
122
121
125
118
118
120
119
150
121
118
122
117
117
119
120
164
121
118
118
117
115
119
120
168
121
118
117
118
114
120
119
163
120
117
117
118
114
120
119
161
120
118
117
118
115
120
119
150
120
117
117
118
116
119
119
131
118
118
118
119
115
120
119
106
115
116
116
118
117
120
119
98
113
115
115
118
118
120
117
92
112
114
113
116
118
119
118
83
113
114
112
115
118
4
255
26
27
5
0
0
0
20
34
0
133
94
43
90
87
63
207
247
8
63
161
96
20
189
236
147
141
189
4
255
138
27
5
0
0
0
132
34
0
136
236
119
118
96
116
115
117
118
119
119
119
105
119
121
127
118
118
119
119
125
120
118
123
118
117
119
120
144
118
117
118
117
115
119
119
150
120
118
118
118
115
119
119
151
120
118
117
119
114
119
119
157
121
118
118
118
115
119
119
140
119
118
117
118
115
119
119
124
119
119
117
118
116
119
119
108
117
117
116
117
116
119
118
96
115
116
116
118
117
120
118
85
113
115
114
117
119
119
117
78
115
115
114
116
119
119
118
59
114
116
120
119
120
120
118
84
115
122
127
119
120
120
119
108
117
119
123
119
119
4
255
26
27
5
0
0
0
20
34
0
133
95
180
88
87
63
23
250
8
63
170
89
20
189
243
150
141
189
4
255
138
27
5
0
0
0
132
34
0
136
237
120
120
114
117
118
120
118
117
119
120
132
119
118
117
118
115
119
120
143
120
117
116
118
114
120
119
149
120
117
117
119
115
119
119
138
119
118
117
118
115
120
119
120
117
117
118
118
116
120
119
94
115
116
116
118
117
119
118
57
113
116
116
117
117
119
118
62
113
115
114
116
118
120
116
77
112
114
113
116
119
120
117
86
114
115
117
119
119
120
118
104
118
122
128
119
119
119
119
116
118
119
126
119
118
119
119
132
119
119
122
119
116
120
120
147
120
117
118
119
116
119
119
158
119
117
115
117
114
4
255
26
27
5
0
0
0
20
34
0
133
96
42
88
87
63
252
250
8
63
244
82
20
189
180
149
141
189
4
255
138
27
5
0
0
0
132
34
0
136
238
119
119
155
120
117
116
118
115
120
118
145
119
118
117
119
115
120
118
135
119
118
117
118
116
119
118
110
117
117
116
117
116
119
117
90
113
115
115
117
117
119
118
90
114
116
114
116
118
119
117
90
114
114
115
116
119
118
117
89
114
115
118
119
120
120
118
112
118
122
124
119
119
120
118
125
118
119
122
119
118
120
120
153
119
118
118
119
117
119
119
164
121
118
118
118
115
120
120
162
120
117
117
119
115
120
119
146
119
118
118
119
116
120
119
121
118
117
117
118
116
119
119
116
118
116
117
118
116
4
255
26
27
5
0
0
0
20
34
0
133
97
96
89
87
63
50
249
8
63
236
71
20
189
128
145
141
189
4
255
138
27
5
0
0
0
132
34
0
136
239
120
119
111
117
116
117
118
117
119
118
99
116
116
116
117
117
120
117
88
114
115
114
117
118
119
118
87
114
115
113
115
118
119
117
102
116
115
116
120
118
120
118
117
118
122
127
119
119
120
118
128
118
119
125
119
119
120
120
145
119
118
120
118
117
120
119
157
121
118
118
119
116
120
120
169
121
118
117
118
115
120
119
171
121
117
117
118
115
120
118
162
120
117
117
118
116
120
118
137
119
118
118
119
116
120
119
102
116
117
117
118
117
119
119
68
114
116
116
117
117
119
118
77
114
115
114
117
118
4
255
26
27
5
0
0
0
20
34
0
133
98
199
87
87
63
169
251
8
63
186
72
20
189
37
148
141
189
4
255
26
27
5
0
0
0
20
34
0
133
99
210
87
87
63
166
251
8
63
37
86
20
189
95
141
141
189
4
255
138
27
5
0
0
0
132
34
0
136
240
118
116
83
112
113
113
116
119
118
116
89
113
114
115
118
119
119
118
110
120
123
125
118
119
118
118
115
118
120
123
119
119
120
119
143
120
118
120
118
117
120
120
156
120
117
117
118
116
120
119
166
121
117
117
118
115
120
119
158
120
117
117
118
115
120
119
145
119
118
117
118
115
119
119
130
118
118
118
118
115
120
117
110
117
117
117
118
116
119
118
93
115
116
116
118
117
120
118
87
114
115
114
117
118
120
117
86
113
114
113
116
119
120
117
87
114
114
114
118
120
119
118
102
119
123
129
120
118
4
255
26
27
5
0
0
0
20
34
0
133
100
207
89
87
63
155
248
8
63
38
52
20
189
9
145
141
189
4
255
138
27
5
0
0
0
132
34
0
136
241
119
118
117
118
121
125
119
118
119
120
148
120
118
121
118
117
120
120
156
120
117
117
118
116
119
120
155
121
117
116
118
114
119
119
145
120
118
116
118
114
120
119
134
119
118
117
118
115
120
119
128
117
117
117
118
116
120
118
114
116
117
117
118
116
120
118
98
114
115
115
117
117
119
118
91
115
116
114
116
118
119
117
89
113
115
114
117
118
120
116
95
114
114
114
117
120
119
118
98
119
123
128
119
119
120
119
114
118
120
124
119
119
120
120
134
119
118
120
118
117
120
120
133
119
118
118
119
116
4
255
26
27
5
0
0
0
20
34
0
133
101
254
90
87
63
185
246
8
63
180
64
20
189
27
143
141
189
4
255
138
27
5
0
0
0
132
34
0
136
242
119
118
139
118
117
116
118
115
119
119
151
121
117
116
117
113
119
119
146
118
117
117
118
115
120
119
133
118
117
116
117
115
119
118
106
117
117
116
117
115
119
118
95
115
116
116
118
117
119
117
99
114
115
114
117
118
119
117
93
113
114
113
116
119
120
117
90
113
114
113
117
120
119
118
103
120
122
129
120
118
119
118
122
119
122
127
118
119
120
120
139
119
118
122
118
118
119
120
154
121
118
118
118
116
120
120
158
122
117
116
118
115
120
119
159
121
117
116
118
115
120
119
140
119
118
117
118
116
4
255
26
27
5
0
0
0
20
34
0
133
102
29
91
87
63
195
246
8
63
191
64
20
189
207
128
141
189
4
255
138
27
5
0
0
0
132
34
0
136
243
119
119
124
118
118
118
119
116
119
119
109
116
116
116
117
115
120
119
97
115
116
115
117
117
119
118
80
114
115
113
117
117
120
117
90
113
114
113
118
119
119
118
93
115
114
112
117
119
119
118
109
119
122
130
119
119
120
118
116
117
121
126
119
119
119
119
132
119
119
122
117
116
120
118
138
119
119
119
119
116
120
119
151
120
117
116
118
115
119
119
145
119
119
117
118
115
120
119
144
119
118
117
118
116
120
118
125
118
118
118
119
116
120
119
117
117
117
117
118
117
119
118
110
117
117
116
117
117
4
255
26
27
5
0
0
0
20
34
0
133
103
85
91
87
63
73
246
8
63
55
57
20
189
252
138
141
189
4
255
138
27
5
0
0
0
132
34
0
136
244
119
118
109
116
116
115
116
117
119
117
95
114
115
114
116
118
119
117
93
114
115
114
116
119
120
117
105
117
121
126
119
119
119
118
116
118
121
125
119
118
119
119
141
120
118
121
119
118
119
120
156
121
118
119
118
116
120
120
159
121
117
117
119
115
120
119
161
120
117
117
118
115
119
119
165
122
118
117
118
115
119
119
141
119
118
118
118
115
120
118
118
117
118
118
119
117
120
118
100
116
116
116
117
117
119
118
89
114
116
115
116
118
119
118
81
113
115
113
115
118
119
117
95
114
114
114
116
119
4
255
138
27
5
0
0
0
132
34
0
136
245
119
118
99
119
124
127
120
118
120
118
103
117
121
126
120
117
119
118
131
117
117
121
118
117
118
119
146
119
118
118
119
116
119
119
164
121
118
117
119
115
119
120
157
121
118
116
118
115
120
119
147
120
117
117
118
115
120
119
133
118
118
118
119
117
120
119
121
118
118
117
118
116
120
118
100
116
116
116
117
117
120
118
78
114
115
115
117
118
119
118
76
113
115
114
117
118
120
117
86
113
114
113
117
120
119
118
105
119
123
128
119
119
119
119
110
119
121
125
118
119
120
120
128
118
118
122
118
118
4
255
26
27
5
0
0
0
20
34
0
133
104
52
91
87
63
148
246
8
63
2
59
20
189
211
132
141
189
4
255
26
27
5
0
0
0
20
34
0
133
105
9
92
87
63
80
245
8
63
183
44
20
189
48
134
141
189
4
255
26
27
5
0
0
0
20
34
0
133
106
107
91
87
63
71
246
8
63
221
31
20
189
233
137
141
189
4
255
138
27
5
0
0
0
132
34
0
136
246
120
120
144
119
118
118
118
116
120
119
145
120
117
116
118
115
119
120
152
119
117
117
118
115
120
118
134
118
117
117
118
115
119
118
117
117
118
118
118
115
119
119
116
117
118
118
119
116
120
118
95
115
116
116
117
117
119
117
81
114
115
115
117
117
120
117
69
113
115
113
116
119
119
117
86
114
114
113
116
119
120
117
109
118
122
127
121
120
120
118
115
118
122
128
119
120
119
119
127
119
119
124
118
117
119
120
159
121
118
120
118
116
120
119
162
120
118
117
119
116
120
120
152
119
118
116
118
115
4
255
26
27
5
0
0
0
20
34
0
133
107
222
91
87
63
142
245
8
63
252
52
20
189
53
133
141
189
4
255
138
27
5
0
0
0
132
34
0
136
247
119
119
124
119
119
117
118
115
119
119
110
117
118
118
118
115
119
118
100
116
118
118
118
115
120
118
89
114
116
117
118
117
119
118
80
113
116
116
117
117
119
118
76
113
115
114
116
118
119
118
87
114
115
113
116
119
119
119
96
118
120
126
119
119
119
118
104
117
120
124
118
119
119
119
124
118
119
121
117
117
119
119
141
120
118
118
118
116
119
119
142
120
118
118
118
115
119
119
154
120
118
117
118
114
119
119
149
120
118
117
118
115
119
119
136
119
118
118
118
115
120
118
127
118
118
118
118
116
4
255
26
27
5
0
0
0
20
34
0
133
108
2
92
87
63
90
245
8
63
153
65
20
189
226
128
141
189
4
255
138
27
5
0
0
0
132
34
0
136
248
119
118
112
116
117
117
118
116
119
118
115
116
117
115
117
117
120
118
109
114
115
113
116
119
119
117
100
113
114
113
116
119
119
118
108
118
121
126
121
119
119
118
120
121
121
127
118
119
120
119
126
120
118
124
119
118
120
120
140
119
118
119
119
117
120
120
146
119
118
117
119
116
120
119
150
120
117
116
118
115
119
119
149
120
118
116
117
115
119
119
131
118
118
118
119
116
120
119
113
116
117
118
118
116
119
118
93
115
117
116
117
116
120
118
84
114
115
115
117
118
120
118
82
113
115
114
117
119
4
255
26
27
5
0
0
0
20
34
0
133
109
79
93
87
63
85
243
8
63
225
61
20
189
72
128
141
189
4
255
138
27
5
0
0
0
132
34
0
136
249
119
117
91
114
114
114
116
119
120
118
95
118
119
122
120
119
119
118
108
118
122
127
119
119
119
119
123
118
119
123
118
117
120
120
139
119
118
119
119
117
118
119
151
120
117
117
118
114
120
119
147
120
117
117
118
115
120
119
140
119
118
118
119
116
120
119
120
117
118
118
119
116
119
119
110
118
118
117
118
116
120
118
97
115
116
117
119
117
120
118
82
113
115
115
117
118
120
118
84
113
115
114
117
119
120
117
83
113
114
113
116
119
119
118
99
118
118
121
119
120
119
118
113
119
123
127
119
119
4
255
26
27
5
0
0
0
20
34
0
133
110
164
94
87
63
79
241
8
63
160
72
20
189
12
121
141
189
4
255
26
27
5
0
0
0
20
34
0
133
111
85
95
87
63
78
240
8
63
12
56
20
189
15
120
141
189
4
255
138
27
5
0
0
0
132
34
0
136
250
120
119
134
119
119
124
119
119
120
120
146
120
117
119
118
117
119
119
159
121
117
117
118
115
119
119
157
121
118
117
117
114
119
119
152
120
118
118
118
114
119
119
146
120
118
117
117
114
120
118
133
119
118
118
119
117
119
118
106
115
115
115
117
116
119
118
91
115
116
117
118
117
119
117
88
114
115
116
117
118
119
118
89
115
115
114
116
119
120
118
126
119
117
121
120
119
120
119
138
119
122
125
119
119
120
119
137
119
119
122
119
119
119
119
178
122
118
119
119
116
120
119
176
121
118
117
119
116
4
255
26
27
5
0
0
0
20
34
0
133
112
43
94
87
63
11
242
8
63
24
60
20
189
212
124
141
189
4
255
138
27
5
0
0
0
132
34
0
136
251
119
119
145
119
119
118
118
114
120
119
140
119
118
118
119
115
119
119
126
118
118
118
118
115
120
118
112
116
118
118
119
116
119
118
105
115
116
116
118
116
119
118
101
116
116
115
117
117
119
117
87
114
115
114
117
118
120
117
80
112
114
113
116
119
118
116
80
113
117
122
119
120
119
117
94
119
121
128
118
118
119
119
110
118
119
123
118
117
120
119
138
117
117
119
118
116
120
120
159
121
117
117
118
115
120
119
160
121
118
116
118
114
119
119
142
120
118
117
118
115
119
119
122
118
118
118
118
115
4
255
26
27
5
0
0
0
20
34
0
133
113
0
95
87
63
191
240
8
63
4
79
20
189
102
119
141
189
4
255
138
27
5
0
0
0
132
34
0
136
252
119
119
112
117
118
118
118
116
119
119
95
115
117
118
118
117
119
118
88
114
116
117
117
117
119
117
83
113
115
115
117
119
120
117
88
112
114
114
116
119
118
117
101
115
117
117
119
120
119
119
115
119
121
124
118
118
120
119
121
118
119
122
119
119
119
120
142
120
117
118
118
116
119
120
157
121
117
116
118
115
119
119
161
121
118
118
118
114
120
119
170
121
117
117
118
115
120
119
144
119
117
117
118
115
120
119
126
118
117
118
118
116
119
119
101
117
117
116
118
116
119
118
74
114
116
116
117
117
4
255
26
27
5
0
0
0
20
34
0
133
114
221
95
87
63
90
239
8
63
68
62
20
189
176
125
141
189
4
255
138
27
5
0
0
0
132
34
0
136
253
120
118
70
112
115
114
117
119
119
116
80
113
114
114
116
119
119
117
98
116
115
118
119
119
119
118
108
118
123
126
119
119
118
118
119
118
119
123
119
118
119
120
135
119
119
119
118
116
120
120
146
120
117
117
118
116
119
119
150
120
117
117
118
114
119
120
156
120
117
117
118
115
119
119
142
120
118
117
117
114
120
118
125
118
118
118
119
116
119
119
100
116
117
117
117
116
120
118
78
114
115
116
117
117
120
117
76
113
115
114
117
119
120
117
85
112
114
113
116
119
120
116
107
115
115
115
118
119
4
255
26
27
5
0
0
0
20
34
0
133
115
168
95
87
63
171
239
8
63
64
53
20
189
253
128
141
189
4
255
138
27
5
0
0
0
132
34
0
136
254
120
117
117
119
123
127
121
118
119
119
129
119
121
125
119
118
120
119
141
119
118
120
118
117
120
120
150
121
117
117
118
115
118
119
155
120
117
117
118
115
118
118
150
120
117
117
118
114
120
119
136
118
117
117
118
116
120
118
120
117
118
118
119
116
119
119
101
116
117
116
117
116
119
118
85
115
116
116
117
117
120
118
82
113
116
114
117
118
119
118
89
113
115
114
116
118
120
117
90
113
115
114
118
120
119
118
108
120
121
127
119
119
120
118
126
119
120
125
119
119
119
120
126
119
119
120
118
116
4
255
26
27
5
0
0
0
20
34
0
133
116
79
96
87
63
201
238
8
63
12
39
20
189
155
123
141
189
4
255
26
27
5
0
0
0
20
34
0
133
117
251
95
87
63
78
239
8
63
253
60
20
189
178
117
141
189
4
255
138
27
5
0
0
0
132
34
0
136
255
119
120
122
118
119
118
118
115
120
119
137
119
118
116
118
114
119
118
147
119
118
117
118
115
119
119
147
120
118
118
118
116
118
118
134
118
117
117
118
116
119
119
122
118
117
116
116
115
119
118
109
115
114
114
117
117
119
117
96
113
114
113
116
118
118
116
83
113
113
113
116
119
120
117
83
112
112
112
117
119
119
118
104
118
125
129
119
119
120
118
120
116
120
124
118
118
119
120
150
121
118
121
118
116
119
120
166
122
118
118
118
116
119
120
163
121
118
117
118
114
119
120
161
121
117
117
118
115
4
255
26
27
5
0
0
0
20
34
0
133
118
180
96
87
63
38
238
8
63
147
67
20
189
67
117
141
189
4
255
138
27
5
0
0
0
132
34
0
136
0
119
119
140
119
118
118
119
115
120
119
128
117
117
117
118
116
119
119
114
117
118
116
117
116
119
118
101
115
116
115
118
117
119
118
91
114
115
113
117
118
119
118
87
114
113
112
115
118
120
117
84
111
113
112
115
119
119
118
103
121
123
129
118
118
120
119
124
120
120
125
119
119
120
120
134
120
117
121
118
117
120
119
133
119
118
119
119
116
119
120
147
120
118
116
118
114
120
119
146
119
118
117
119
115
120
119
149
120
117
117
118
115
119
119
133
120
118
117
118
115
120
119
114
117
117
117
118
117
4
255
26
27
5
0
0
0
20
34
0
133
119
44
96
87
63
1
239
8
63
249
53
20
189
126
119
141
189
4
255
138
27
5
0
0
0
132
34
0
136
1
120
119
108
115
116
116
118
118
120
118
102
116
115
114
117
118
120
117
89
114
115
113
116
119
119
117
84
114
114
114
117
119
120
118
95
118
123
127
119
120
120
117
114
118
121
125
119
118
118
118
139
119
118
120
118
117
120
120
158
121
118
118
119
116
120
119
157
121
117
117
119
115
120
119
154
121
117
117
118
114
120
119
147
119
118
118
118
116
120
119
131
118
117
117
118
116
120
119
110
117
117
117
118
116
120
118
87
115
116
116
118
118
120
118
77
113
115
114
117
118
119
118
86
114
114
113
116
119
4
255
26
27
5
0
0
0
20
34
0
133
120
45
96
87
63
252
238
8
63
121
13
20
189
242
130
141
189
4
255
138
27
5
0
0
0
132
34
0
136
2
119
118
95
114
114
113
116
119
119
118
111
120
123
128
119
119
120
119
119
118
119
124
118
118
119
120
134
119
119
121
118
117
119
119
158
121
118
119
119
116
120
120
167
121
118
117
119
115
119
119
157
120
117
117
118
114
120
119
138
119
118
117
118
116
120
119
125
118
118
118
118
116
120
119
114
117
117
118
118
117
119
119
100
116
116
116
117
117
119
118
82
114
116
114
117
117
119
118
70
113
115
114
116
118
119
117
80
113
114
113
117
119
119
118
96
118
122
128
120
119
119
118
109
117
121
126
119
119
4
255
26
27
5
0
0
0
20
34
0
133
121
104
96
87
63
160
238
8
63
150
23
20
189
22
128
141
189
4
255
138
27
5
0
0
0
132
34
0
136
3
119
119
138
119
119
122
118
117
120
119
160
120
118
119
119
116
120
118
155
120
118
117
119
114
120
119
153
120
117
117
118
114
119
119
153
120
117
117
118
115
119
119
145
119
118
118
119
115
120
119
129
117
117
118
118
116
119
118
103
116
116
115
116
115
120
118
79
114
115
113
116
117
120
118
81
112
113
112
116
118
119
118
93
113
113
111
116
119
120
117
107
118
120
126
119
119
119
118
118
119
122
128
119
118
119
119
138
119
119
124
118
117
120
119
155
120
118
120
118
116
120
119
158
121
117
116
118
114
4
255
26
27
5
0
0
0
20
34
0
133
122
129
98
87
63
96
235
8
63
248
65
20
189
238
113
141
189
4
255
26
27
5
0
0
0
20
34
0
133
123
50
97
87
63
106
237
8
63
119
59
20
189
195
116
141
189
4
255
138
27
5
0
0
0
132
34
0
136
4
119
119
157
120
118
117
118
114
119
119
148
120
117
117
118
115
120
119
129
118
117
117
118
116
119
119
117
118
118
118
118
116
120
117
92
115
116
116
118
117
119
118
88
114
116
115
117
118
118
116
86
113
114
113
116
119
120
117
90
111
113
111
116
118
119
118
106
119
122
128
118
118
119
119
118
119
122
127
117
117
120
119
130
119
119
124
119
118
119
120
134
119
119
120
117
115
119
119
142
120
118
117
118
114
119
119
151
121
118
116
118
115
120
118
145
119
118
117
118
116
120
119
128
117
118
117
118
116
4
255
26
27
5
0
0
0
20
34
0
133
124
45
98
87
63
220
235
8
63
216
52
20
189
77
119
141
189
4
255
138
27
5
0
0
0
132
34
0
136
5
119
119
111
117
118
118
118
116
119
119
97
115
116
115
117
116
119
118
91
114
116
115
117
118
120
118
82
112
115
114
117
119
119
118
81
112
114
114
116
119
120
118
94
117
122
126
120
119
120
117
96
119
122
125
119
119
120
119
115
118
118
120
118
118
119
120
140
119
119
117
118
116
119
120
149
120
117
117
118
114
119
119
160
120
118
118
118
114
119
119
140
120
117
117
118
115
119
119
125
118
118
118
119
115
120
119
109
117
117
118
118
117
120
118
103
116
117
117
117
117
119
118
99
115
116
115
116
117
4
255
26
27
5
0
0
0
20
34
0
133
125
127
96
87
63
152
238
8
63
0
12
20
189
73
124
141
189
4
255
138
27
5
0
0
0
132
34
0
136
6
119
118
90
114
115
114
116
118
120
117
89
113
114
113
117
120
119
118
93
117
119
127
120
119
119
119
111
120
122
124
119
119
120
119
128
118
119
121
119
119
120
120
140
119
118
118
119
117
120
119
156
120
117
117
119
116
119
120
161
121
118
117
118
114
119
120
164
121
117
117
118
115
119
119
151
121
118
117
118
115
119
119
115
117
118
119
118
116
120
118
91
115
116
116
118
117
120
118
92
114
115
115
118
118
120
118
105
115
115
114
116
119
119
117
96
114
114
113
116
118
120
118
100
117
117
126
120
119
4
255
26
27
5
0
0
0
20
34
0
133
126
147
96
87
63
124
238
8
63
76
8
20
189
54
124
141
189
4
255
26
27
5
0
0
0
20
34
0
133
127
172
96
87
63
80
238
8
63
22
7
20
189
174
125
141
189
4
255
138
27
5
0
0
0
132
34
0
136
7
119
119
115
118
120
126
119
119
119
119
139
119
119
123
119
118
119
120
160
121
117
119
117
115
120
119
169
121
118
117
119
116
120
119
163
120
117
116
118
114
120
119
156
120
117
117
119
115
120
118
133
119
118
118
119
116
119
118
125
118
118
118
117
114
119
119
107
115
115
114
116
116
120
118
93
114
114
114
117
117
118
116
89
112
114
113
117
118
119
118
84
112
113
112
116
119
118
117
95
118
120
123
119
120
119
118
115
120
122
127
120
118
119
119
135
120
118
124
118
118
119
120
146
120
117
119
118
116
4
255
138
27
5
0
0
0
132
34
0
136
8
120
120
142
119
118
117
119
116
119
119
148
120
118
116
118
114
120
119
135
120
117
117
118
115
120
118
123
118
118
118
119
115
120
119
120
117
118
118
119
117
120
118
88
114
116
116
118
117
120
118
84
113
115
115
117
118
120
117
79
113
115
114
117
119
118
116
71
113
114
113
116
119
118
116
86
116
119
124
120
119
119
118
102
118
122
126
119
119
120
118
120
118
119
124
119
118
120
120
130
119
118
120
119
116
120
120
138
119
118
116
118
115
120
120
146
119
118
117
118
115
120
119
152
119
118
117
119
116
4
255
26
27
5
0
0
0
20
34
0
133
128
219
96
87
63
7
238
8
63
248
14
20
189
111
123
141
189
4
255
26
27
5
0
0
0
20
34
0
133
129
4
98
87
63
70
236
8
63
151
248
19
189
48
125
141
189
4
255
138
27
5
0
0
0
132
34
0
136
9
119
119
142
120
118
118
118
115
119
119
130
119
118
117
118
116
119
118
94
115
117
116
118
116
120
118
70
113
115
115
117
118
119
118
79
113
115
114
117
118
119
118
91
114
113
112
116
119
120
117
123
117
118
118
120
119
120
118
134
121
122
129
119
120
119
119
132
120
119
126
118
118
119
119
147
119
118
120
118
117
119
120
152
120
118
118
118
115
119
119
154
120
117
116
118
115
120
118
155
120
117
117
118
115
120
118
141
119
118
117
118
116
120
119
120
117
117
117
118
116
119
118
99
115
116
116
118
117
4
255
26
27
5
0
0
0
20
34
0
133
130
40
98
87
63
18
236
8
63
218
250
19
189
128
123
141
189
4
255
138
27
5
0
0
0
132
34
0
136
10
120
118
93
115
115
115
117
117
119
118
92
114
115
113
116
118
119
116
94
113
113
114
116
119
119
117
107
115
116
118
119
119
120
118
118
122
122
126
120
119
120
119
129
119
119
123
119
119
120
120
131
118
118
119
119
117
120
120
151
121
118
117
118
115
118
119
157
120
117
118
118
114
119
119
155
120
117
118
117
114
118
118
137
118
118
118
118
116
119
119
120
116
116
116
117
115
119
119
110
117
117
116
117
116
120
117
122
117
116
116
118
118
119
117
103
115
115
114
117
118
120
117
89
113
114
113
116
119
4
255
26
27
5
0
0
0
20
34
0
133
131
101
97
87
63
81
237
8
63
124
249
19
189
141
120
141
189
4
255
26
27
5
0
0
0
20
34
0
133
132
166
97
87
63
218
236
8
63
202
247
19
189
29
125
141
189
4
255
138
27
5
0
0
0
132
34
0
136
11
120
117
88
114
114
116
119
120
120
118
124
119
123
128
119
120
120
119
134
120
119
123
119
118
120
120
151
121
118
119
118
117
120
120
160
121
117
117
118
115
120
120
156
120
117
117
118
115
120
120
138
118
118
117
118
115
120
119
115
117
117
117
118
116
118
118
111
117
117
118
118
116
120
119
97
116
116
116
117
116
119
119
70
114
115
115
117
117
120
117
68
113
115
114
117
118
119
118
74
113
115
114
116
119
120
117
85
114
116
117
119
120
120
118
102
119
122
128
119
120
120
118
115
118
119
125
119
118
4
255
26
27
5
0
0
0
20
34
0
133
133
3
97
87
63
14
238
8
63
230
238
19
189
4
115
141
189
4
255
138
27
5
0
0
0
132
34
0
136
12
119
119
131
119
119
121
118
116
118
119
145
119
118
118
119
116
119
119
157
121
118
117
118
114
120
119
154
119
118
117
118
115
119
119
151
121
118
118
118
115
120
119
127
118
118
118
118
116
119
119
106
117
118
116
118
116
119
118
79
115
117
116
117
117
120
117
74
113
115
114
117
119
120
118
85
113
113
112
115
118
119
118
88
113
114
113
117
118
119
119
97
118
120
126
119
119
119
119
111
118
119
124
118
118
119
119
139
120
118
120
117
116
120
118
151
120
118
117
118
116
119
119
156
121
118
116
117
113
4
255
26
27
5
0
0
0
20
34
0
133
134
72
97
87
63
128
237
8
63
158
218
19
189
114
128
141
189
4
255
138
27
5
0
0
0
132
34
0
136
13
120
119
151
120
117
117
118
115
120
119
150
120
117
117
118
115
120
118
132
119
118
118
119
116
120
118
112
117
117
117
118
117
120
118
101
116
116
116
118
118
120
118
91
114
115
114
117
118
120
118
84
113
114
113
116
119
119
118
105
115
115
114
117
119
119
119
119
121
120
127
119
119
119
119
125
119
120
124
118
118
120
120
140
119
119
121
119
118
119
119
140
119
119
119
119
115
119
119
147
120
118
117
119
114
120
119
154
119
118
117
118
115
119
119
142
119
118
118
119
116
119
119
126
118
118
118
118
115
4
255
26
27
5
0
0
0
20
34
0
133
135
249
96
87
63
39
238
8
63
80
223
19
189
15
117
141
189
4
255
26
27
5
0
0
0
20
34
0
133
136
175
96
87
63
106
238
8
63
210
226
19
189
2
128
141
189
4
255
138
27
5
0
0
0
132
34
0
136
14
120
119
102
116
117
117
118
117
119
118
99
115
116
116
117
117
119
118
96
117
116
112
116
118
119
117
91
115
115
113
117
118
120
117
88
114
115
113
117
120
120
118
105
117
120
129
119
120
119
118
120
118
121
127
119
119
120
120
164
121
118
122
118
117
119
120
174
122
118
118
118
116
120
120
163
120
117
115
117
114
118
118
156
120
117
116
118
115
120
119
149
118
117
116
117
114
119
119
128
118
118
117
117
114
119
119
108
117
118
117
118
116
119
118
91
115
116
116
117
117
120
117
85
114
115
114
117
118
4
255
26
27
5
0
0
0
20
34
0
133
137
173
96
87
63
125
238
8
63
95
227
19
189
252
123
141
189
4
255
138
27
5
0
0
0
132
34
0
136
15
120
116
85
114
115
114
117
118
119
117
82
113
114
112
116
119
119
118
99
118
122
128
119
119
119
119
113
118
121
126
119
119
120
120
145
119
119
122
119
118
120
120
162
120
117
119
119
116
120
119
160
120
118
116
118
115
120
120
149
120
117
116
118
115
119
119
136
119
119
118
118
115
119
119
117
118
118
117
118
116
119
119
105
116
117
116
117
115
119
119
89
114
115
115
116
116
120
117
82
113
115
115
117
119
120
118
73
111
115
113
116
119
119
118
75
113
115
114
116
119
120
118
90
117
122
127
120
119
4
255
26
27
5
0
0
0
20
34
0
133
138
7
99
87
63
187
234
8
63
88
236
19
189
82
125
141
189
4
255
138
27
5
0
0
0
132
34
0
136
16
119
118
110
117
119
124
119
119
119
119
128
118
119
120
117
117
120
119
146
120
117
116
117
115
120
118
147
120
117
117
119
115
119
119
141
120
118
116
117
114
120
119
118
118
118
117
119
115
120
118
115
117
118
118
119
115
120
118
104
117
118
118
119
117
120
119
80
113
115
116
118
117
120
118
84
114
115
114
117
118
119
118
83
113
114
113
115
117
119
118
83
113
114
113
117
119
120
117
98
118
122
127
120
119
120
118
115
118
120
125
119
119
119
120
143
120
118
120
118
117
119
119
168
121
118
119
118
116
4
255
26
27
5
0
0
0
20
34
0
133
139
54
100
87
63
178
232
8
63
230
214
19
189
124
141
141
189
4
255
138
27
5
0
0
0
132
34
0
136
17
120
119
172
121
118
117
119
115
119
119
155
120
118
118
118
114
120
119
137
118
117
117
118
115
120
119
125
118
118
118
118
116
119
119
116
118
118
117
118
116
119
118
106
116
117
117
117
117
119
118
106
115
116
115
116
117
119
117
91
114
115
114
116
118
120
116
88
113
114
114
117
119
120
118
104
118
122
128
120
119
120
119
115
117
120
126
119
119
119
120
134
120
118
122
118
117
120
119
148
120
117
119
119
117
120
118
158
120
117
116
118
115
118
118
153
119
118
117
118
114
119
119
151
121
118
116
117
115
4
255
26
27
5
0
0
0
20
34
0
133
140
117
100
87
63
119
232
8
63
53
233
19
189
51
127
141
189
4
255
26
27
5
0
0
0
20
34
0
133
141
234
99
87
63
104
233
8
63
14
248
19
189
145
117
141
189
4
255
138
27
5
0
0
0
132
34
0
136
18
120
118
140
119
118
118
119
117
119
119
127
119
118
118
117
116
119
119
102
116
117
115
117
117
120
118
95
114
115
114
117
118
120
117
84
114
114
114
117
119
120
117
88
113
114
113
118
120
120
117
103
119
119
129
119
120
120
119
113
118
121
127
119
120
120
119
132
119
119
123
119
117
119
120
141
119
119
119
119
116
119
120
155
121
117
116
117
114
119
119
161
121
118
117
117
114
119
119
154
120
118
117
118
115
119
119
136
118
117
116
116
114
120
119
124
118
117
117
118
116
119
118
90
115
116
117
118
117
4
255
26
27
5
0
0
0
20
34
0
133
142
156
100
87
63
110
232
8
63
197
232
19
189
146
114
141
189
4
255
138
27
5
0
0
0
132
34
0
136
19
120
117
72
113
115
115
117
117
120
118
80
114
115
113
116
118
119
117
83
114
114
113
117
119
119
118
95
117
119
125
119
120
120
118
109
117
122
126
119
120
119
119
130
118
119
123
119
117
119
120
157
121
118
119
119
116
120
120
157
121
117
116
118
115
119
119
157
120
118
117
119
114
119
119
146
120
118
117
118
115
120
119
128
117
117
117
118
116
120
119
115
117
117
118
118
117
120
119
108
115
116
116
118
117
120
118
101
114
114
115
116
117
119
118
91
114
115
114
116
118
120
117
92
113
113
112
116
119
4
255
26
27
5
0
0
0
20
34
0
133
143
107
100
87
63
199
232
8
63
82
11
20
189
179
102
141
189
4
255
138
27
5
0
0
0
132
34
0
136
20
120
118
104
118
120
127
120
119
120
118
111
118
122
124
118
118
119
119
128
119
119
121
117
116
119
120
140
120
117
117
117
115
119
119
150
120
118
117
119
115
119
119
167
122
118
118
118
114
119
119
165
121
118
118
118
115
120
119
150
121
117
117
118
115
120
119
122
117
118
118
118
116
120
119
99
115
116
116
118
117
118
117
89
113
115
114
117
118
120
118
85
113
114
113
116
119
120
117
87
113
112
112
115
118
120
117
100
117
117
124
121
120
120
118
111
119
121
127
119
120
120
120
132
118
119
123
119
118
4
255
26
27
5
0
0
0
20
34
0
133
144
147
100
87
63
145
232
8
63
7
246
19
189
234
105
141
189
4
255
138
27
5
0
0
0
132
34
0
136
21
119
120
146
120
119
120
119
116
119
120
149
120
119
117
118
115
120
120
148
119
118
117
118
115
120
119
149
120
118
117
118
115
119
119
133
119
119
118
118
115
119
119
118
118
118
118
118
116
120
119
99
115
116
116
118
117
119
118
98
115
116
115
117
117
119
118
80
113
115
114
116
118
119
117
81
113
114
113
116
118
119
118
97
118
120
124
119
119
119
119
110
119
123
126
119
119
119
118
121
117
118
122
119
118
119
119
140
119
118
119
119
116
120
119
137
119
118
117
118
115
120
119
130
119
118
117
118
114
4
255
26
27
5
0
0
0
20
34
0
133
145
197
98
87
63
110
235
8
63
6
235
19
189
84
107
141
189
4
255
138
27
5
0
0
0
132
34
0
136
22
119
119
120
117
118
118
118
115
119
119
118
118
118
118
118
115
120
119
119
118
117
117
118
116
120
118
102
116
117
117
118
117
119
118
86
115
116
116
117
117
120
118
82
113
115
114
117
119
120
118
77
113
113
113
116
119
120
117
87
117
120
126
120
119
119
118
111
119
122
126
119
119
119
119
131
119
118
122
118
118
119
120
152
120
118
120
117
115
120
120
162
120
117
117
119
115
120
119
164
120
117
117
118
115
119
119
169
121
117
116
116
113
118
118
148
119
117
117
118
115
120
118
134
117
116
116
117
115
4
255
26
27
5
0
0
0
20
34
0
133
146
97
98
87
63
22
236
8
63
14
245
19
189
47
102
141
189
4
255
26
27
5
0
0
0
20
34
0
133
147
191
97
87
63
10
237
8
63
3
11
20
189
46
99
141
189
4
255
138
27
5
0
0
0
132
34
0
136
23
119
118
122
116
115
115
116
116
120
118
105
114
114
114
116
117
119
117
101
114
115
114
116
118
120
117
107
114
113
113
116
119
119
118
113
118
116
123
118
119
120
119
119
118
122
126
119
120
120
119
137
119
119
123
119
119
119
119
153
120
118
119
119
117
119
119
156
120
117
117
119
116
119
119
161
121
118
116
118
114
119
119
157
121
117
116
118
114
119
119
144
119
118
118
119
115
119
119
121
118
117
117
118
116
120
119
99
115
116
116
118
117
119
118
91
115
116
116
117
117
120
118
89
114
115
114
117
119
4
255
26
27
5
0
0
0
20
34
0
133
148
9
96
87
63
210
239
8
63
66
247
19
189
186
98
141
189
4
255
138
27
5
0
0
0
132
34
0
136
24
120
117
84
113
114
113
117
119
119
118
96
117
117
118
119
119
120
119
104
117
122
129
119
119
120
119
114
117
119
125
119
118
119
119
128
118
119
120
118
116
119
120
144
120
118
117
118
115
120
118
156
120
118
117
119
115
119
119
132
119
119
118
118
115
119
119
114
117
118
118
119
116
120
119
102
116
117
117
118
116
119
119
94
116
117
116
117
116
120
117
86
114
116
116
117
118
119
117
84
114
115
114
116
118
119
118
94
114
114
112
116
119
119
117
104
116
119
121
119
119
119
118
113
117
121
127
119
120
4
255
26
27
5
0
0
0
20
34
0
133
149
104
94
87
63
104
242
8
63
130
8
20
189
147
92
141
189
4
255
138
27
5
0
0
0
132
34
0
136
25
120
119
130
119
118
123
118
118
119
120
150
121
118
121
118
116
120
120
153
120
117
117
118
115
120
119
158
120
117
117
119
115
120
119
160
120
117
117
118
115
120
119
136
118
118
118
119
116
119
119
121
118
118
117
118
116
119
119
103
117
116
116
117
116
119
118
91
115
116
115
117
117
120
117
89
114
114
113
116
118
119
117
85
113
114
113
116
119
119
117
96
117
116
115
119
120
119
118
108
118
124
128
118
119
118
118
114
117
119
124
119
118
119
119
127
119
119
120
118
115
119
120
139
119
118
118
118
115
4
255
26
27
5
0
0
0
20
34
0
133
150
14
94
87
63
254
242
8
63
137
242
19
189
45
96
141
189
4
255
138
27
5
0
0
0
132
34
0
136
26
120
120
145
120
117
116
118
114
119
120
140
120
117
117
118
115
119
119
133
119
118
117
118
115
120
119
119
117
117
117
118
116
120
119
116
117
117
117
118
117
119
118
112
116
116
116
118
117
119
118
92
115
116
114
116
118
120
117
79
114
114
113
116
119
119
118
82
114
115
117
118
119
120
117
104
118
122
127
119
119
120
119
113
118
119
124
118
118
120
119
143
120
118
120
119
116
119
119
158
121
118
118
118
115
120
119
157
121
117
116
118
114
119
119
155
121
118
117
118
114
119
118
144
119
118
118
118
115
4
255
26
27
5
0
0
0
20
34
0
133
151
125
96
87
63
77
239
8
63
203
252
19
189
98
85
141
189
4
255
138
27
5
0
0
0
132
34
0
136
27
119
119
126
118
117
116
117
115
120
119
105
116
116
116
118
117
119
118
103
116
116
116
117
117
120
117
89
114
115
114
117
118
120
117
83
114
114
112
116
119
120
116
86
114
115
115
120
118
120
118
104
118
123
127
119
119
120
119
121
118
119
124
118
118
120
120
131
118
118
120
118
117
119
120
140
119
119
118
118
115
120
119
144
120
117
116
118
114
119
119
145
119
118
117
118
115
119
119
163
121
118
118
118
115
120
119
139
119
117
117
118
116
119
118
108
117
117
117
117
116
119
116
90
114
115
115
117
117
4
255
138
27
5
0
0
0
132
34
0
136
28
119
117
84
112
113
113
115
117
119
117
87
112
113
112
115
118
119
117
85
114
114
112
115
118
119
117
99
117
121
127
120
119
118
118
112
116
119
124
119
119
119
120
137
119
119
121
118
116
119
120
152
120
118
118
119
115
120
120
158
121
117
116
118
114
120
119
150
120
117
117
119
115
119
120
119
118
118
117
118
115
120
118
111
117
118
118
119
116
120
119
108
116
116
117
118
117
119
118
119
118
116
116
117
117
120
118
100
115
115
114
117
118
120
117
85
114
115
114
117
118
120
118
72
113
114
114
119
120
4
255
26
27
5
0
0
0
20
34
0
133
152
105
97
87
63
244
237
8
63
19
246
19
189
175
80
141
189
4
255
26
27
5
0
0
0
20
34
0
133
153
88
96
87
63
149
239
8
63
92
246
19
189
149
83
141
189
4
255
26
27
5
0
0
0
20
34
0
133
154
144
95
87
63
175
240
8
63
2
218
19
189
169
98
141
189
4
255
138
27
5
0
0
0
132
34
0
136
29
120
117
79
116
123
127
120
118
120
119
105
117
120
125
119
119
120
120
145
119
118
122
118
117
119
119
161
120
118
119
119
116
120
119
161
120
117
116
118
114
119
119
158
120
117
116
118
115
120
119
143
120
117
117
118
115
119
119
131
119
119
118
117
115
119
119
111
117
118
116
117
116
119
119
101
116
116
115
117
117
120
118
96
114
115
114
117
118
120
116
87
115
115
113
116
118
120
117
109
116
115
113
117
120
120
118
123
120
122
128
119
120
119
119
124
117
118
124
118
118
120
118
134
118
117
120
118
117
4
255
26
27
5
0
0
0
20
34
0
133
155
242
96
87
63
179
238
8
63
131
212
19
189
86
88
141
189
4
255
138
27
5
0
0
0
132
34
0
136
30
119
120
148
120
117
118
118
116
118
118
151
119
118
116
118
114
120
119
151
120
117
116
118
115
119
119
143
120
118
116
117
115
119
118
124
117
117
117
118
116
120
119
108
117
117
117
118
116
120
117
98
115
116
116
118
117
119
118
92
114
115
115
117
118
120
118
83
112
113
113
116
118
120
117
82
113
114
113
117
120
120
118
102
119
123
127
120
119
120
118
116
119
121
125
119
119
120
119
154
120
118
121
119
117
120
120
169
121
117
117
118
116
120
119
158
120
118
118
119
115
120
119
147
119
118
118
119
115
4
255
26
27
5
0
0
0
20
34
0
133
156
86
97
87
63
6
238
8
63
213
191
19
189
149
97
141
189
4
255
138
27
5
0
0
0
132
34
0
136
31
120
119
153
120
118
118
119
115
120
119
137
119
118
117
118
116
119
119
120
118
118
117
118
116
120
118
100
115
115
116
118
118
120
118
92
114
115
115
117
118
120
117
91
114
114
114
116
119
120
117
76
113
113
113
116
119
119
117
92
118
124
128
120
119
119
118
107
117
121
125
119
119
120
120
141
119
118
121
118
118
120
120
155
120
117
119
119
117
119
120
156
121
118
116
118
114
120
120
150
120
117
117
118
115
120
119
139
120
117
117
118
115
120
119
123
117
117
117
118
116
119
119
108
117
118
118
118
115
4
255
26
27
5
0
0
0
20
34
0
133
157
171
97
87
63
120
237
8
63
81
198
19
189
16
98
141
189
4
255
138
27
5
0
0
0
132
34
0
136
32
119
118
92
114
116
115
117
117
118
117
87
114
115
114
117
118
120
118
84
113
115
114
117
119
118
116
87
113
114
113
116
120
119
117
100
118
121
127
120
119
120
119
118
119
121
125
119
119
119
120
132
119
119
121
118
117
119
119
142
119
118
119
119
115
120
119
146
119
118
117
119
114
120
118
146
119
118
118
119
115
120
118
161
120
118
118
119
116
119
119
142
120
118
118
119
115
119
119
115
117
118
117
118
116
120
118
71
114
116
116
117
117
120
118
60
112
115
115
117
118
118
117
76
113
115
113
116
118
4
255
26
27
5
0
0
0
20
34
0
133
158
75
97
87
63
13
238
8
63
183
198
19
189
90
98
141
189
4
255
26
27
5
0
0
0
20
34
0
133
159
213
98
87
63
153
235
8
63
106
180
19
189
21
105
141
189
4
255
138
27
5
0
0
0
132
34
0
136
33
119
117
79
114
114
112
116
119
120
118
92
117
119
129
119
120
119
118
106
117
121
127
120
118
119
120
131
119
120
122
118
117
119
120
130
119
119
119
118
115
119
119
139
119
119
117
118
115
120
119
141
120
117
115
118
114
119
119
143
120
117
116
117
114
119
119
130
118
118
117
118
115
119
119
117
118
117
117
118
116
120
118
110
116
116
116
118
117
119
118
100
114
116
116
117
117
120
118
96
113
114
114
117
119
120
118
94
113
113
113
116
120
120
117
99
119
122
126
121
119
119
119
111
121
121
124
119
119
4
255
26
27
5
0
0
0
20
34
0
133
160
20
99
87
63
58
235
8
63
231
163
19
189
101
108
141
189
4
255
138
27
5
0
0
0
132
34
0
136
34
119
119
132
119
119
121
117
116
119
120
153
120
118
119
118
116
120
120
158
120
117
117
118
115
119
119
158
121
118
118
118
114
120
119
145
119
118
118
119
116
120
119
139
119
118
118
118
115
119
119
116
118
118
118
118
116
119
119
100
116
116
116
118
116
120
118
95
115
115
114
117
117
120
118
95
114
115
114
117
119
120
118
101
115
114
112
116
119
120
117
105
118
119
127
121
119
119
119
117
119
121
128
118
119
119
119
147
120
118
123
119
117
119
120
156
121
118
120
118
116
119
119
150
121
118
116
118
115
4
255
26
27
5
0
0
0
20
34
0
133
161
122
99
87
63
135
234
8
63
144
169
19
189
70
111
141
189
4
255
138
27
5
0
0
0
132
34
0
136
35
119
119
158
121
118
117
118
114
120
118
151
119
117
116
117
114
119
119
138
119
118
118
118
115
120
119
128
117
117
118
118
116
120
118
108
116
117
117
117
117
120
117
91
114
116
115
117
118
119
118
94
114
115
114
117
118
120
116
87
113
114
113
116
119
119
118
93
118
122
125
120
119
120
118
112
119
121
127
119
119
120
118
131
118
119
123
119
118
120
120
137
118
118
119
119
117
119
119
143
120
118
117
119
115
119
120
150
121
117
116
118
114
119
119
147
120
118
117
118
115
120
119
140
119
118
117
118
116
4
255
26
27
5
0
0
0
20
34
0
133
162
103
99
87
63
147
234
8
63
105
169
19
189
251
115
141
189
4
255
138
27
5
0
0
0
132
34
0
136
36
119
119
126
119
119
117
118
116
119
117
101
115
115
115
117
117
120
118
91
115
115
115
117
118
119
118
84
115
115
113
116
118
120
117
89
114
114
112
116
119
119
117
107
117
123
126
121
118
119
119
118
119
122
126
119
119
119
119
131
119
118
122
118
117
119
119
141
119
118
119
119
117
120
120
150
120
117
117
118
115
119
119
150
120
118
116
117
114
119
119
139
119
118
117
118
115
120
118
122
117
118
118
119
116
119
119
110
117
118
117
118
116
120
118
96
115
116
116
118
117
119
118
80
114
116
116
117
117
4
255
26
27
5
0
0
0
20
34
0
133
163
123
97
87
63
131
237
8
63
225
143
19
189
219
127
141
189
4
255
138
27
5
0
0
0
132
34
0
136
37
120
118
80
113
115
113
117
119
119
117
77
114
113
112
114
117
118
117
80
116
121
126
120
119
119
119
103
118
122
126
119
119
120
119
125
118
118
122
118
118
119
120
140
120
118
119
118
116
118
118
158
120
117
117
118
114
119
119
151
120
117
116
117
113
119
119
147
119
117
116
117
114
120
119
139
118
117
117
118
116
119
117
117
117
117
118
118
116
118
117
98
115
116
116
118
117
119
118
96
115
116
116
117
117
118
117
99
114
115
114
115
117
120
117
102
114
113
113
116
119
120
116
106
117
117
125
120
119
4
255
26
27
5
0
0
0
20
34
0
133
164
55
99
87
63
7
235
8
63
175
129
19
189
108
116
141
189
4
255
26
27
5
0
0
0
20
34
0
133
165
241
98
87
63
133
235
8
63
189
153
19
189
39
106
141
189
4
255
138
27
5
0
0
0
132
34
0
136
38
120
118
118
120
123
127
120
119
119
118
152
119
119
123
118
118
119
120
170
120
117
119
118
116
120
119
161
120
117
117
118
115
119
119
157
120
117
117
118
114
120
119
154
120
117
116
118
115
120
118
131
118
118
117
118
116
120
119
126
118
117
117
118
116
120
118
106
115
115
114
116
115
119
118
81
114
116
115
117
117
120
118
77
114
115
114
116
118
120
118
74
112
114
113
116
119
120
118
88
116
117
122
119
120
119
118
107
118
122
127
119
119
120
119
127
118
119
123
119
118
119
120
149
121
119
119
118
116
4
255
26
27
5
0
0
0
20
34
0
133
166
36
96
87
63
203
239
8
63
229
159
19
189
200
112
141
189
4
255
138
27
5
0
0
0
132
34
0
136
39
120
120
153
120
117
117
118
115
119
119
148
120
118
117
118
114
119
119
150
121
118
117
118
115
120
119
136
118
117
118
119
116
120
119
124
117
117
117
118
116
119
118
107
116
117
117
118
117
119
118
97
115
116
116
117
118
119
117
86
114
115
114
116
118
119
118
91
113
114
113
116
119
120
117
89
114
116
120
119
120
120
118
100
119
123
127
120
119
120
119
129
119
119
123
119
119
119
119
152
120
118
120
118
116
119
120
156
121
118
118
119
115
119
119
158
121
118
117
119
114
120
118
155
120
118
118
119
114
4
255
26
27
5
0
0
0
20
34
0
133
167
65
95
87
63
26
241
8
63
194
110
19
189
13
131
141
189
4
255
138
27
5
0
0
0
132
34
0
136
40
119
119
139
119
119
118
118
115
119
119
128
117
116
116
117
115
120
118
103
117
116
116
118
117
119
119
79
113
114
115
116
116
120
118
75
112
114
114
117
118
120
116
81
112
113
113
117
119
119
117
86
114
116
121
119
120
119
118
106
120
123
125
119
119
119
119
123
119
120
122
119
117
118
119
137
118
118
119
119
117
120
120
137
118
118
117
118
115
120
119
143
119
118
117
119
115
120
118
144
119
118
118
119
116
120
118
130
118
118
118
119
116
119
119
119
118
118
118
118
116
120
118
101
116
117
117
119
117
4
255
26
27
5
0
0
0
20
34
0
133
168
113
96
87
63
134
239
8
63
245
103
19
189
8
115
141
189
4
255
138
27
5
0
0
0
132
34
0
136
41
119
118
95
115
116
116
118
117
120
118
94
114
115
113
117
119
118
117
84
113
114
112
116
118
120
117
83
115
114
118
118
119
119
118
104
118
123
129
119
120
119
119
122
118
120
125
118
118
120
120
139
119
118
120
118
117
120
120
151
120
117
117
118
115
120
120
146
119
118
116
118
114
120
119
150
120
117
117
118
115
120
119
141
120
117
117
118
116
119
119
129
118
118
118
119
116
119
118
113
117
117
117
117
116
119
118
106
116
116
116
118
117
120
117
91
114
115
114
117
118
120
117
88
113
114
113
116
119
4
255
26
27
5
0
0
0
20
34
0
133
169
250
96
87
63
138
238
8
63
31
139
19
189
71
114
141
189
4
255
138
27
5
0
0
0
132
34
0
136
42
120
117
93
116
115
116
119
120
120
119
103
117
123
127
120
119
119
119
127
119
120
124
119
118
120
119
158
121
118
121
119
118
120
118
155
119
117
117
118
116
119
119
164
122
118
116
118
114
120
118
160
120
117
117
119
115
120
119
152
119
118
117
118
116
120
119
136
118
118
118
118
116
119
118
109
117
117
117
118
116
120
118
102
116
116
115
117
117
120
118
97
114
115
114
117
118
120
117
87
114
114
113
116
119
119
118
98
115
115
113
119
120
119
118
119
121
123
128
118
119
119
119
124
119
120
123
118
118
4
255
26
27
5
0
0
0
20
34
0
133
170
205
94
87
63
211
241
8
63
233
112
19
189
163
129
141
189
4
255
26
27
5
0
0
0
20
34
0
133
171
72
95
87
63
6
241
8
63
129
126
19
189
13
129
141
189
4
255
138
27
5
0
0
0
132
34
0
136
43
120
119
131
119
119
121
119
117
120
120
144
119
117
117
118
115
118
118
146
119
118
117
118
115
120
119
147
119
118
117
118
115
119
119
139
119
118
118
118
115
120
119
131
118
116
116
117
115
120
118
113
117
117
117
118
117
120
118
96
115
115
116
117
117
120
118
90
113
115
115
117
118
120
117
88
113
114
113
116
119
120
118
68
112
114
116
118
120
119
119
83
118
124
127
119
119
120
119
104
116
120
123
119
119
120
120
102
117
118
119
118
117
119
120
105
117
118
117
118
115
120
119
129
118
118
117
119
115
4
255
26
27
5
0
0
0
20
34
0
133
172
233
96
87
63
125
238
8
63
111
146
19
189
28
122
141
189
4
255
138
27
5
0
0
0
132
34
0
136
44
120
119
138
119
118
117
119
115
120
119
114
117
117
117
118
116
120
118
103
117
118
118
119
116
119
119
97
116
118
116
117
116
119
118
91
114
116
116
118
117
120
117
90
112
113
113
116
117
119
117
90
113
114
115
117
119
119
118
87
114
113
114
117
120
119
118
100
119
123
125
119
120
118
118
126
119
121
123
119
119
119
119
157
121
118
120
118
116
118
119
159
121
118
118
119
116
119
119
162
121
118
118
118
114
120
119
148
120
117
118
119
115
119
119
115
118
118
117
118
115
120
119
115
117
118
118
118
116
4
255
26
27
5
0
0
0
20
34
0
133
173
137
95
87
63
151
240
8
63
130
142
19
189
216
126
141
189
4
255
138
27
5
0
0
0
132
34
0
136
45
119
119
116
118
118
118
118
116
120
118
105
116
116
116
118
118
120
118
92
115
116
115
116
118
119
117
93
115
115
114
117
119
119
118
102
116
115
114
115
118
119
119
122
118
122
125
118
119
119
119
136
119
121
123
118
117
119
120
148
120
118
121
118
117
120
120
153
120
117
117
119
117
120
119
162
120
117
117
119
115
120
119
166
121
117
117
118
115
120
119
166
121
117
117
118
115
120
119
152
119
118
118
118
116
119
118
129
118
118
118
118
116
119
118
88
115
116
116
117
117
119
118
90
114
116
115
116
117
4
255
26
27
5
0
0
0
20
34
0
133
174
128
94
87
63
36
242
8
63
72
137
19
189
17
133
141
189
4
255
138
27
5
0
0
0
132
34
0
136
46
119
117
95
115
115
114
116
118
120
117
102
114
114
113
117
119
120
117
115
120
122
127
119
119
119
118
124
118
119
125
119
119
119
117
151
119
118
121
118
117
120
120
163
119
117
117
117
115
120
120
161
121
117
116
118
114
120
120
164
120
117
117
118
115
120
119
122
117
117
117
118
116
120
119
115
117
117
117
118
116
120
119
110
117
117
118
118
117
120
118
73
114
115
115
117
117
120
118
77
113
115
114
117
118
120
118
90
113
114
113
116
119
120
117
99
115
114
113
116
119
120
117
109
119
123
128
120
118
4
255
26
27
5
0
0
0
20
34
0
133
175
132
94
87
63
53
242
8
63
100
132
19
189
226
128
141
189
4
255
138
27
5
