*** FIRST HEADER ***
4
255
6
127
6
0
146
253
0
4
255
10
27
5
0
0
0
4
30
0
0
79
4
255
6
19
5
0
0
0
0
*** OTHER HEADER ***
4
255
22
27
5
0
0
0
16
34
0
132
0
*** DATA ***
29
226
126
66
98
84
129
66
160
125
240
193
*** OTHER HEADER ***
4
255
22
27
5
0
0
0
16
34
0
132
1
*** DATA ***
193
231
126
66
184
78
129
66
208
99
240
193
4
255
22
27
5
0
0
0
16
34
0
132
2
210
227
126
66
6
76
129
66
231
96
240
193
4
255
22
27
5
0
0
0
16
34
0
132
3
239
228
126
66
18
84
129
66
227
123
240
193
4
255
22
27
5
0
0
0
16
34
0
132
4
226
228
126
66
236
76
129
66
155
92
240
193
4
255
22
27
5
0
0
0
16
34
0
132
5
254
225
126
66
168
69
129
66
176
71
240
193
4
255
22
27
5
0
0
0
16
34
0
132
6
195
231
126
66
168
78
129
66
203
100
240
193
4
255
22
27
5
0
0
0
16
34
0
132
7
108
228
126
66
8
77
129
66
158
95
240
193
4
255
22
27
5
0
0
0
16
34
0
132
8
120
229
126
66
216
68
129
66
168
65
240
193
4
255
22
27
5
0
0
0
16
34
0
132
9
117
241
126
66
212
77
129
66
50
91
240
193
4
255
22
27
5
0
0
0
16
34
0
132
10
163
231
126
66
114
79
129
66
198
103
240
193
4
255
22
27
5
0
0
0
16
34
0
132
11
144
235
126
66
16
85
129
66
139
122
240
193
4
255
22
27
5
0
0
0
16
34
0
132
12
16
245
126
66
232
80
129
66
226
104
240
193
4
255
22
27
5
0
0
0
16
34
0
132
13
74
237
126
66
188
72
129
66
10
78
240
193
4
255
22
27
5
0
0
0
16
34
0
132
14
208
227
126
66
10
80
129
66
163
102
240
193
4
255
22
27
5
0
0
0
16
34
0
132
15
166
234
126
66
198
78
129
66
172
90
240
193
4
255
22
27
5
0
0
0
16
34
0
132
16
37
235
126
66
116
68
129
66
201
57
240
193
4
255
22
27
5
0
0
0
16
34
0
132
17
181
229
126
66
66
73
129
66
200
77
240
193
4
255
22
27
5
0
0
0
16
34
0
132
18
126
236
126
66
16
77
129
66
209
89
240
193
4
255
22
27
5
0
0
0
16
34
0
132
19
130
240
126
66
22
69
129
66
223
62
240
193
4
255
22
27
5
0
0
0
16
34
0
132
20
247
234
126
66
242
73
129
66
30
84
240
193
4
255
22
27
5
0
0
0
16
34
0
132
21
89
229
126
66
60
68
129
66
15
61
240
193
4
255
22
27
5
0
0
0
16
34
0
132
22
41
238
126
66
118
54
129
66
79
11
240
193
4
255
22
27
5
0
0
0
16
34
0
132
23
167
234
126
66
164
59
129
66
172
30
240
193
4
255
22
27
5
0
0
0
16
34
0
132
24
226
233
126
66
0
70
129
66
234
67
240
193
4
255
22
27
5
0
0
0
16
34
0
132
25
176
234
126
66
156
66
129
66
114
55
240
193
4
255
22
27
5
0
0
0
16
34
0
132
26
108
230
126
66
68
57
129
66
130
23
240
193
4
255
22
27
5
0
0
0
16
34
0
132
27
35
230
126
66
124
63
129
66
197
46
240
193
4
255
22
27
5
0
0
0
16
34
0
132
28
49
231
126
66
132
61
129
66
17
35
240
193
4
255
22
27
5
0
0
0
16
34
0
132
29
37
235
126
66
198
61
129
66
30
31
240
193
4
255
22
27
5
0
0
0
16
34
0
132
30
2
231
126
66
104
67
129
66
131
56
240
193
4
255
22
27
5
0
0
0
16
34
0
132
31
14
232
126
66
94
66
129
66
94
51
240
193
4
255
22
27
5
0
0
0
16
34
0
132
32
35
240
126
66
2
66
129
66
225
43
240
193
4
255
22
27
5
0
0
0
16
34
0
132
33
75
245
126
66
68
68
129
66
122
52
240
193
4
255
22
27
5
0
0
0
16
34
0
132
34
1
244
126
66
70
82
129
66
199
104
240
193
4
255
22
27
5
0
0
0
16
34
0
132
35
156
248
126
66
86
79
129
66
126
93
240
193
4
255
22
27
5
0
0
0
16
34
0
132
36
143
252
126
66
252
70
129
66
158
60
240
193
4
255
22
27
5
0
0
0
16
34
0
132
37
249
250
126
66
176
75
129
66
202
82
240
193
4
255
22
27
5
0
0
0
16
34
0
132
38
87
248
126
66
8
70
129
66
249
64
240
193
4
255
22
27
5
0
0
0
16
34
0
132
39
116
250
126
66
188
62
129
66
82
35
240
193
4
255
22
27
5
0
0
0
16
34
0
132
40
184
245
126
66
60
67
129
66
96
54
240
193
4
255
22
27
5
0
0
0
16
34
0
132
41
235
242
126
66
24
72
129
66
80
75
240
193
4
255
22
27
5
0
0
0
16
34
0
132
42
103
252
126
66
6
68
129
66
177
57
240
193
4
255
22
27
5
0
0
0
16
34
0
132
43
249
250
126
66
222
67
129
66
118
59
240
193
4
255
22
27
5
0
0
0
16
34
0
132
44
153
249
126
66
16
76
129
66
32
88
240
193
4
255
22
27
5
0
0
0
16
34
0
132
45
116
252
126
66
222
74
129
66
234
80
240
193
4
255
22
27
5
0
0
0
16
34
0
132
46
49
0
127
66
230
71
129
66
146
69
240
193
4
255
22
27
5
0
0
0
16
34
0
132
47
158
249
126
66
154
83
129
66
40
113
240
193
4
255
22
27
5
0
0
0
16
34
0
132
48
94
241
126
66
172
82
129
66
172
112
240
193
4
255
22
27
5
0
0
0
16
34
0
132
49
225
246
126
66
148
82
129
66
42
113
240
193
4
255
22
27
5
0
0
0
16
34
0
132
50
109
248
126
66
152
77
129
66
24
97
240
193
4
255
22
27
5
0
0
0
16
34
0
132
51
220
246
126
66
254
86
129
66
99
132
240
193
4
255
22
27
5
0
0
0
16
34
0
132
52
182
250
126
66
26
96
129
66
177
162
240
193
4
255
22
27
5
0
0
0
16
34
0
132
53
251
255
126
66
236
89
129
66
218
142
240
193
4
255
22
27
5
0
0
0
16
34
0
132
54
254
247
126
66
94
95
129
66
170
166
240
193
4
255
22
27
5
0
0
0
16
34
0
132
55
167
245
126
66
30
95
129
66
8
165
240
193
4
255
22
27
5
0
0
0
16
34
0
132
56
156
248
126
66
254
92
129
66
22
154
240
193
4
255
22
27
5
0
0
0
16
34
0
132
57
8
248
126
66
254
94
129
66
118
160
240
193
4
255
22
27
5
0
0
0
16
34
0
132
58
81
243
126
66
148
103
129
66
42
191
240
193
4
255
22
27
5
0
0
0
16
34
0
132
59
134
250
126
66
26
97
129
66
89
168
240
193
4
255
22
27
5
0
0
0
16
34
0
132
60
21
249
126
66
102
90
129
66
218
142
240
193
4
255
22
27
5
0
0
0
16
34
0
132
61
143
246
126
66
244
102
129
66
92
187
240
193
4
255
22
27
5
0
0
0
16
34
0
132
62
202
249
126
66
244
101
129
66
20
183
240
193
4
255
22
27
5
0
0
0
16
34
0
132
63
127
247
126
66
220
93
129
66
11
156
240
193
4
255
22
27
5
0
0
0
16
34
0
132
64
169
244
126
66
6
102
129
66
176
185
240
193
4
255
22
27
5
0
0
0
16
34
0
132
65
173
244
126
66
154
108
129
66
227
205
240
193
4
255
22
27
5
0
0
0
16
34
0
132
66
250
244
126
66
166
101
129
66
161
181
240
193
4
255
22
27
5
0
0
0
16
34
0
132
67
211
243
126
66
122
100
129
66
24
177
240
193
4
255
22
27
5
0
0
0
16
34
0
132
68
3
243
126
66
168
102
129
66
84
186
240
193
4
255
22
27
5
0
0
0
16
34
0
132
69
230
244
126
66
254
98
129
66
96
169
240
193
4
255
22
27
5
0
0
0
16
34
0
132
70
246
244
126
66
16
102
129
66
158
177
240
193
4
255
22
27
5
0
0
0
16
34
0
132
71
234
240
126
66
102
106
129
66
212
195
240
193
4
255
22
27
5
0
0
0
16
34
0
132
72
92
237
126
66
26
106
129
66
19
195
240
193
4
255
22
27
5
0
0
0
16
34
0
132
73
237
237
126
66
24
98
129
66
142
163
240
193
4
255
22
27
5
0
0
0
16
34
0
132
74
107
232
126
66
106
105
129
66
178
188
240
193
4
255
22
27
5
0
0
0
16
34
0
132
75
149
233
126
66
96
112
129
66
55
208
240
193
4
255
22
27
5
0
0
0
16
34
0
132
76
94
236
126
66
180
106
129
66
233
188
240
193
4
255
22
27
5
0
0
0
16
34
0
132
77
232
233
126
66
62
104
129
66
146
183
240
193
4
255
22
27
5
0
0
0
16
34
0
132
78
239
237
126
66
234
107
129
66
27
196
240
193
4
255
22
27
5
0
0
0
16
34
0
132
79
42
237
126
66
100
109
129
66
161
201
240
193
4
255
22
27
5
0
0
0
16
34
0
132
80
138
231
126
66
190
108
129
66
131
201
240
193
4
255
22
27
5
0
0
0
16
34
0
132
81
11
228
126
66
64
104
129
66
186
184
240
193
4
255
22
27
5
0
0
0
16
34
0
132
82
194
230
126
66
74
100
129
66
229
169
240
193
4
255
22
27
5
0
0
0
16
34
0
132
83
85
230
126
66
244
94
129
66
233
151
240
193
4
255
22
27
5
0
0
0
16
34
0
132
84
38
229
126
66
118
94
129
66
234
149
240
193
4
255
22
27
5
0
0
0
16
34
0
132
85
87
231
126
66
114
107
129
66
161
193
240
193
4
255
22
27
5
0
0
0
16
34
0
132
86
63
229
126
66
188
113
129
66
30
216
240
193
4
255
22
27
5
0
0
0
16
34
0
132
87
25
228
126
66
144
114
129
66
62
221
240
193
4
255
22
27
5
0
0
0
16
34
0
132
88
119
233
126
66
178
111
129
66
207
206
240
193
4
255
22
27
5
0
0
0
16
34
0
132
89
73
236
126
66
86
111
129
66
6
206
240
193
4
255
22
27
5
0
0
0
16
34
0
132
90
30
225
126
66
190
114
129
66
224
222
240
193
4
255
22
27
5
0
0
0
16
34
0
132
91
122
226
126
66
160
101
129
66
29
176
240
193
4
255
22
27
5
0
0
0
16
34
0
132
92
147
241
126
66
118
94
129
66
18
142
240
193
4
255
22
27
5
0
0
0
16
34
0
132
93
125
236
126
66
212
96
129
66
119
154
240
193
4
255
22
27
5
0
0
0
16
34
0
132
94
104
215
126
66
172
105
129
66
253
193
240
193
4
255
22
27
5
0
0
0
16
34
0
132
95
213
231
126
66
14
106
129
66
151
183
240
193
4
255
22
27
5
0
0
0
16
34
0
132
96
121
241
126
66
198
95
129
66
253
141
240
193
4
255
22
27
5
0
0
0
16
34
0
132
97
134
219
126
66
32
90
129
66
169
132
240
193
4
255
22
27
5
0
0
0
16
34
0
132
98
198
219
126
66
84
98
129
66
201
158
240
193
4
255
22
27
5
0
0
0
16
34
0
132
99
17
245
126
66
224
94
129
66
138
132
240
193
4
255
22
27
5
0
0
0
16
34
0
132
100
177
242
126
66
30
102
129
66
216
161
240
193
4
255
22
27
5
0
0
0
16
34
0
132
101
167
222
126
66
106
97
129
66
233
153
240
193
4
255
22
27
5
0
0
0
16
34
0
132
102
115
230
126
66
126
90
129
66
57
123
240
193
4
255
22
27
5
0
0
0
16
34
0
132
103
179
234
126
66
210
96
129
66
114
142
240
193
4
255
22
27
5
0
0
0
16
34
0
132
104
130
223
126
66
234
100
129
66
64
165
240
193
4
255
22
27
5
0
0
0
16
34
0
132
105
109
234
126
66
66
103
129
66
27
168
240
193
4
255
22
27
5
0
0
0
16
34
0
132
106
250
236
126
66
244
85
129
66
85
108
240
193
4
255
22
27
5
0
0
0
16
34
0
132
107
219
226
126
66
162
89
129
66
136
125
240
193
4
255
22
27
5
0
0
0
16
34
0
132
108
176
235
126
66
20
101
129
66
71
159
240
193
4
255
22
27
5
0
0
0
16
34
0
132
109
113
239
126
66
80
98
129
66
235
146
240
193
4
255
22
27
5
0
0
0
16
34
0
132
110
211
224
126
66
204
98
129
66
93
157
240
193
4
255
22
27
5
0
0
0
16
34
0
132
111
71
220
126
66
182
96
129
66
187
147
240
193
4
255
22
27
5
0
0
0
16
34
0
132
112
74
231
126
66
226
93
129
66
220
130
240
193
4
255
22
27
5
0
0
0
16
34
0
132
113
140
224
126
66
208
93
129
66
174
135
240
193
4
255
22
27
5
0
0
0
16
34
0
132
114
85
225
126
66
56
100
129
66
186
156
240
193
4
255
22
27
5
0
0
0
16
34
0
132
115
210
233
126
66
214
97
129
66
104
145
240
193
4
255
22
27
5
0
0
0
16
34
0
132
116
33
234
126
66
24
89
129
66
161
116
240
193
4
255
22
27
5
0
0
0
16
34
0
132
117
81
226
126
66
40
95
129
66
36
140
240
193
4
255
22
27
5
0
0
0
16
34
0
132
118
39
231
126
66
174
101
129
66
133
160
240
193
4
255
22
27
5
0
0
0
16
34
0
132
119
88
231
126
66
216
93
129
66
148
131
240
193
4
255
22
27
5
0
0
0
16
34
0
132
120
84
232
126
66
116
92
129
66
144
128
240
193
4
255
22
27
5
0
0
0
16
34
0
132
121
153
236
126
66
90
105
129
66
155
171
240
193
4
255
22
27
5
0
0
0
16
34
0
132
122
134
238
126
66
122
105
129
66
63
171
240
193
4
255
22
27
5
0
0
0
16
34
0
132
123
92
232
126
66
82
91
129
66
60
122
240
193
4
255
22
27
5
0
0
0
16
34
0
132
124
94
228
126
66
112
103
129
66
157
162
240
193
4
255
22
27
5
0
0
0
16
34
0
132
125
108
224
126
66
106
95
129
66
42
135
240
193
4
255
22
27
5
0
0
0
16
34
0
132
126
189
233
126
66
30
104
129
66
39
164
240
193
4
255
22
27
5
0
0
0
16
34
0
132
127
76
238
126
66
2
100
129
66
170
146
240
193
4
255
22
27
5
0
0
0
16
34
0
132
128
49
233
126
66
110
92
129
66
92
125
240
193
4
255
22
27
5
0
0
0
16
34
0
132
129
167
232
126
66
176
112
129
66
234
196
240
193
4
255
22
27
5
0
0
0
16
34
0
132
130
58
234
126
66
40
111
129
66
235
190
240
193
4
255
22
27
5
0
0
0
16
34
0
132
131
86
235
126
66
182
89
129
66
131
116
240
193
4
255
22
27
5
0
0
0
16
34
0
132
132
5
238
126
66
18
103
129
66
238
161
240
193
4
255
22
27
5
0
0
0
16
34
0
132
133
0
232
126
66
156
91
129
66
113
128
240
193
4
255
22
27
5
0
0
0
16
34
0
132
134
44
244
126
66
228
86
129
66
221
101
240
193
4
255
22
27
5
0
0
0
16
34
0
132
135
123
242
126
66
110
108
129
66
140
179
240
193
4
255
22
27
5
0
0
0
16
34
0
132
136
152
218
126
66
132
91
129
66
16
133
240
193
4
255
22
27
5
0
0
0
16
34
0
132
137
231
230
126
66
8
81
129
66
185
81
240
193
4
255
22
27
5
0
0
0
16
34
0
132
138
118
244
126
66
186
82
129
66
104
83
240
193
4
255
22
27
5
0
0
0
16
34
0
132
139
187
229
126
66
236
98
129
66
227
152
240
193
4
255
22
27
5
0
0
0
16
34
0
132
140
137
231
126
66
26
110
129
66
201
187
240
193
4
255
22
27
5
0
0
0
16
34
0
132
141
246
248
126
66
234
87
129
66
169
98
240
193
4
255
22
27
5
0
0
0
16
34
0
132
142
195
240
126
66
96
79
129
66
112
73
240
193
4
255
22
27
5
0
0
0
16
34
0
132
143
6
227
126
66
116
98
129
66
21
149
240
193
4
255
22
27
5
0
0
0
16
34
0
132
144
2
229
126
66
142
95
129
66
198
129
240
193
4
255
22
27
5
0
0
0
16
34
0
132
145
20
240
126
66
196
90
129
66
70
106
240
193
4
255
22
27
5
0
0
0
16
34
0
132
146
170
225
126
66
46
91
129
66
44
119
240
193
4
255
22
27
5
0
0
0
16
34
0
132
147
66
221
126
66
200
84
129
66
72
96
240
193
4
255
22
27
5
0
0
0
16
34
0
132
148
10
236
126
66
236
82
129
66
156
83
240
193
4
255
22
27
5
0
0
0
16
34
0
132
149
27
231
126
66
218
96
129
66
133
134
240
193
4
255
22
27
5
0
0
0
16
34
0
132
150
240
226
126
66
232
99
129
66
160
151
240
193
4
255
22
27
5
0
0
0
16
34
0
132
151
48
225
126
66
164
89
129
66
2
112
240
193
4
255
22
27
5
0
0
0
16
34
0
132
152
236
217
126
66
214
94
129
66
72
130
240
193
4
255
22
27
5
0
0
0
16
34
0
132
153
79
210
126
66
30
103
129
66
91
163
240
193
4
255
22
27
5
0
0
0
16
34
0
132
154
111
220
126
66
32
93
129
66
2
118
240
193
4
255
22
27
5
0
0
0
16
34
0
132
155
194
234
126
66
86
87
129
66
117
95
240
193
4
255
22
27
5
0
0
0
16
34
0
132
156
13
228
126
66
50
92
129
66
64
117
240
193
4
255
22
27
5
0
0
0
16
34
0
132
157
249
223
126
66
30
93
129
66
138
124
240
193
4
255
22
27
5
0
0
0
16
34
0
132
158
161
225
126
66
136
86
129
66
65
96
240
193
4
255
22
27
5
0
0
0
16
34
0
132
159
2
225
126
66
20
88
129
66
70
106
240
193
4
255
22
27
5
0
0
0
16
34
0
132
160
43
221
126
66
140
83
129
66
50
90
240
193
4
255
22
27
5
0
0
0
16
34
0
132
161
186
222
126
66
156
79
129
66
225
74
240
193
4
255
22
27
5
0
0
0
16
34
0
132
162
239
231
126
66
134
86
129
66
254
96
240
193
4
255
22
27
5
0
0
0
16
34
0
132
163
86
230
126
66
198
93
129
66
143
125
240
193
4
255
22
27
5
0
0
0
16
34
0
132
164
67
227
126
66
72
94
129
66
100
129
240
193
4
255
22
27
5
0
0
0
16
34
0
132
165
178
239
126
66
140
95
129
66
110
129
240
193
4
255
22
27
5
0
0
0
16
34
0
132
166
162
249
126
66
70
93
129
66
37
117
240
193
4
255
22
27
5
0
0
0
16
34
0
132
167
54
233
126
66
6
86
129
66
168
103
240
193
4
255
22
27
5
0
0
0
16
34
0
132
168
147
215
126
66
78
93
129
66
114
131
240
193
4
255
22
27
5
0
0
0
16
34
0
132
169
210
223
126
66
92
95
129
66
88
134
240
193
4
255
22
27
5
0
0
0
16
34
0
132
170
170
246
126
66
76
78
129
66
118
60
240
193
4
255
22
27
5
0
0
0
16
34
0
132
171
213
237
126
66
18
71
129
66
170
39
240
193
4
255
22
27
5
0
0
0
16
34
0
132
172
149
223
126
66
94
86
129
66
32
101
240
193
4
255
22
27
5
0
0
0
16
34
0
132
173
138
227
126
66
118
91
129
66
206
114
240
193
4
255
22
27
5
0
0
0
16
34
0
132
174
5
233
126
66
16
77
129
66
90
61
240
193
4
255
22
27
5
0
0
0
16
34
0
132
175
204
221
126
66
148
80
129
66
204
77
240
193
4
255
22
27
5
0
0
0
16
34
0
132
176
251
221
126
66
48
81
129
66
28
76
240
193
4
255
22
27
5
0
0
0
16
34
0
132
177
49
234
126
66
200
88
129
66
253
97
240
193
4
255
22
27
5
0
0
0
16
34
0
132
178
119
231
126
66
78
74
129
66
82
49
240
193
4
255
22
27
5
0
0
0
16
34
0
132
179
20
226
126
66
10
76
129
66
17
59
240
193
4
255
22
27
5
0
0
0
16
34
0
132
180
120
228
126
66
148
76
129
66
228
55
240
193
4
255
22
27
5
0
0
0
16
34
0
132
181
170
225
126
66
92
80
129
66
185
69
240
193
4
255
22
27
5
0
0
0
16
34
0
132
182
166
227
126
66
124
79
129
66
240
63
240
193
4
255
22
27
5
0
0
0
16
34
0
132
183
49
229
126
66
152
76
129
66
56
50
240
193
4
255
22
27
5
0
0
0
16
34
0
132
184
214
233
126
66
18
77
129
66
35
53
240
193
4
255
22
27
5
0
0
0
16
34
0
132
185
251
233
126
66
186
83
129
66
177
76
240
193
4
255
22
27
5
0
0
0
16
34
0
132
186
207
231
126
66
200
80
129
66
49
66
240
193
4
255
22
27
5
0
0
0
16
34
0
132
187
227
229
126
66
14
86
129
66
91
85
240
193
4
255
22
27
5
0
0
0
16
34
0
132
188
63
230
126
66
32
81
129
66
186
62
240
193
4
255
22
27
5
0
0
0
16
34
0
132
189
9
233
126
66
246
83
129
66
126
71
240
193
4
255
22
27
5
0
0
0
16
34
0
132
190
175
226
126
66
30
82
129
66
220
67
240
193
4
255
22
27
5
0
0
0
16
34
0
132
191
240
230
126
66
106
81
129
66
7
63
240
193
4
255
22
27
5
0
0
0
16
34
0
132
192
54
231
126
66
234
72
129
66
53
29
240
193
4
255
22
27
5
0
0
0
16
34
0
132
193
98
226
126
66
174
77
129
66
121
47
240
193
4
255
22
27
5
0
0
0
16
34
0
132
194
217
225
126
66
110
72
129
66
107
30
240
193
4
255
22
27
5
0
0
0
16
34
0
132
195
251
234
126
66
0
82
129
66
210
57
240
193
4
255
22
27
5
0
0
0
16
34
0
132
196
60
233
126
66
120
82
129
66
103
61
240
193
4
255
22
27
5
0
0
0
16
34
0
132
197
142
227
126
66
58
83
129
66
173
64
240
193
4
255
22
27
5
0
0
0
16
34
0
132
198
177
232
126
66
42
77
129
66
28
38
240
193
4
255
22
27
5
0
0
0
16
34
0
132
199
209
236
126
66
70
82
129
66
35
55
240
193
4
255
22
27
5
0
0
0
16
34
0
132
200
175
236
126
66
194
85
129
66
206
67
240
193
4
255
22
27
5
0
0
0
16
34
0
132
201
28
238
126
66
234
82
129
66
154
58
240
193
4
255
22
27
5
0
0
0
16
34
0
132
202
15
237
126
66
44
83
129
66
223
58
240
193
4
255
22
27
5
0
0
0
16
34
0
132
203
205
240
126
66
104
90
129
66
226
84
240
193
4
255
22
27
5
0
0
0
16
34
0
132
204
153
245
126
66
68
91
129
66
208
84
240
193
4
255
22
27
5
0
0
0
16
34
0
132
205
187
250
126
66
122
87
129
66
223
68
240
193
4
255
22
27
5
0
0
0
16
34
0
132
206
136
246
126
66
36
85
129
66
185
59
240
193
4
255
22
27
5
0
0
0
16
34
0
132
207
146
242
126
66
84
90
129
66
53
79
240
193
4
255
22
27
5
0
0
0
16
34
0
132
208
60
239
126
66
58
93
129
66
75
91
240
193
4
255
22
27
5
0
0
0
16
34
0
132
209
148
237
126
66
122
90
129
66
10
79
240
193
4
255
22
27
5
0
0
0
16
34
0
132
210
15
243
126
66
88
98
129
66
132
102
240
193
4
255
22
27
5
0
0
0
16
34
0
132
211
247
243
126
66
160
104
129
66
152
124
240
193
4
255
22
27
5
0
0
0
16
34
0
132
212
40
242
126
66
172
97
129
66
40
101
240
193
4
255
22
27
5
0
0
0
16
34
0
132
213
84
242
126
66
246
99
129
66
254
106
240
193
4
255
22
27
5
0
0
0
16
34
0
132
214
40
241
126
66
20
111
129
66
8
147
240
193
4
255
22
27
5
0
0
0
16
34
0
132
215
38
236
126
66
160
105
129
66
30
129
240
193
4
255
22
27
5
0
0
0
16
34
0
132
216
37
240
126
66
58
104
129
66
133
122
240
193
4
255
22
27
5
0
0
0
16
34
0
132
217
43
236
126
66
178
107
129
66
161
134
240
193
4
255
22
27
5
0
0
0
16
34
0
132
218
90
239
126
66
74
117
129
66
254
166
240
193
4
255
22
27
5
0
0
0
16
34
0
132
219
41
248
126
66
184
119
129
66
169
167
240
193
4
255
22
27
5
0
0
0
16
34
0
132
220
164
243
126
66
234
116
129
66
147
160
240
193
4
255
22
27
5
0
0
0
16
34
0
132
221
171
238
126
66
156
124
129
66
88
190
240
193
4
255
22
27
5
0
0
0
16
34
0
132
222
243
251
126
66
88
129
129
66
243
195
240
193
4
255
22
27
5
0
0
0
16
34
0
132
223
154
0
127
66
92
129
129
66
65
194
240
193
4
255
22
27
5
0
0
0
16
34
0
132
224
84
244
126
66
254
128
129
66
249
193
240
193
4
255
22
27
5
0
0
0
16
34
0
132
225
189
243
126
66
58
130
129
66
49
196
240
193
4
255
22
27
5
0
0
0
16
34
0
132
226
33
242
126
66
120
114
129
66
143
137
240
193
4
255
22
27
5
0
0
0
16
34
0
132
227
182
236
126
66
188
120
129
66
214
158
240
193
4
255
22
27
5
0
0
0
16
34
0
132
228
117
239
126
66
162
128
129
66
4
186
240
193
4
255
22
27
5
0
0
0
16
34
0
132
229
6
240
126
66
50
127
129
66
181
180
240
193
4
255
22
27
5
0
0
0
16
34
0
132
230
195
229
126
66
208
120
129
66
118
162
240
193
4
255
22
27
5
0
0
0
16
34
0
132
231
4
232
126
66
14
136
129
66
48
215
240
193
4
255
22
27
5
0
0
0
16
34
0
132
232
133
244
126
66
120
141
129
66
24
228
240
193
4
255
22
27
5
0
0
0
16
34
0
132
233
214
237
126
66
12
139
129
66
113
223
240
193
4
255
22
27
5
0
0
0
16
34
0
132
234
119
229
126
66
136
143
129
66
250
245
240
193
4
255
22
27
5
0
0
0
16
34
0
132
235
60
238
126
66
138
148
129
66
234
255
240
193
4
255
22
27
5
0
0
0
16
34
0
132
236
197
239
126
66
44
141
129
66
38
227
240
193
4
255
22
27
5
0
0
0
16
34
0
132
237
42
239
126
66
24
149
129
66
239
1
241
193
4
255
22
27
5
0
0
0
16
34
0
132
238
197
236
126
66
50
142
129
66
203
234
240
193
4
255
22
27
5
0
0
0
16
34
0
132
239
248
240
126
66
196
136
129
66
25
210
240
193
4
255
22
27
5
0
0
0
16
34
0
132
240
10
243
126
66
118
135
129
66
55
208
240
193
4
255
22
27
5
0
0
0
16
34
0
132
241
142
241
126
66
40
139
129
66
83
223
240
193
4
255
22
27
5
0
0
0
16
34
0
132
242
31
244
126
66
24
138
129
66
118
216
240
193
4
255
22
27
5
0
0
0
16
34
0
132
243
207
242
126
66
28
139
129
66
177
219
240
193
4
255
22
27
5
0
0
0
16
34
0
132
244
112
236
126
66
118
134
129
66
196
208
240
193
4
255
22
27
5
0
0
0
16
34
0
132
245
201
241
126
66
196
133
129
66
111
203
240
193
4
255
22
27
5
0
0
0
16
34
0
132
246
190
246
126
66
226
141
129
66
201
227
240
193
4
255
22
27
5
0
0
0
16
34
0
132
247
103
239
126
66
8
145
129
66
186
241
240
193
4
255
22
27
5
0
0
0
16
34
0
132
248
208
234
126
66
114
135
129
66
55
205
240
193
4
255
22
27
5
0
0
0
16
34
0
132
249
171
235
126
66
100
134
129
66
7
200
240
193
4
255
22
27
5
0
0
0
16
34
0
132
250
182
236
126
66
20
136
129
66
159
207
240
193
4
255
22
27
5
0
0
0
16
34
0
132
251
58
234
126
66
18
134
129
66
154
200
240
193
4
255
22
27
5
0
0
0
16
34
0
132
252
26
234
126
66
226
127
129
66
248
179
240
193
4
255
22
27
5
0
0
0
16
34
0
132
253
150
229
126
66
124
130
129
66
95
191
240
193
4
255
22
27
5
0
0
0
16
34
0
132
254
222
228
126
66
202
133
129
66
94
203
240
193
4
255
22
27
5
0
0
0
16
34
0
132
255
205
235
126
66
174
134
129
66
135
201
240
193
4
255
22
27
5
0
0
0
16
34
0
132
0
171
236
126
66
252
130
129
66
57
187
240
193
4
255
22
27
5
0
0
0
16
34
0
132
1
166
236
126
66
0
135
129
66
186
203
240
193
4
255
22
27
5
0
0
0
16
34
0
132
2
137
240
126
66
208
127
129
66
61
177
240
193
4
255
22
27
5
0
0
0
16
34
0
132
3
13
245
126
66
14
128
129
66
95
176
240
193
4
255
22
27
5
0
0
0
16
34
0
132
4
186
238
126
66
22
123
129
66
19
161
240
193
4
255
22
27
5
0
0
0
16
34
0
132
5
231
241
126
66
82
122
129
66
66
158
240
193
4
255
22
27
5
0
0
0
16
34
0
132
6
131
239
126
66
122
117
129
66
75
147
240
193
4
255
22
27
5
0
0
0
16
34
0
132
7
185
246
126
66
14
119
129
66
50
137
240
193
4
255
22
27
5
0
0
0
16
34
0
132
8
193
232
126
66
228
119
129
66
139
152
240
193
4
255
22
27
5
0
0
0
16
34
0
132
9
101
232
126
66
82
127
129
66
125
172
240
193
4
255
22
27
5
0
0
0
16
34
0
132
10
155
238
126
66
32
118
129
66
166
132
240
193
4
255
22
27
5
0
0
0
16
34
0
132
11
50
228
126
66
88
121
129
66
17
154
240
193
4
255
22
27
5
0
0
0
16
34
0
132
12
214
225
126
66
62
122
129
66
31
150
240
193
4
255
22
27
5
0
0
0
16
34
0
132
13
122
236
126
66
242
119
129
66
77
137
240
193
4
255
22
27
5
0
0
0
16
34
0
132
14
46
230
126
66
188
115
129
66
42
129
240
193
4
255
22
27
5
0
0
0
16
34
0
132
15
87
226
126
66
216
123
129
66
183
156
240
193
4
255
22
27
5
0
0
0
16
34
0
132
16
165
225
126
66
26
110
129
66
153
103
240
193
4
255
22
27
5
0
0
0
16
34
0
132
17
72
230
126
66
250
119
129
66
245
136
240
193
4
255
22
27
5
0
0
0
16
34
0
132
18
202
224
126
66
2
126
129
66
201
159
240
193
4
255
22
27
5
0
0
0
16
34
0
132
19
245
227
126
66
66
131
129
66
183
176
240
193
4
255
22
27
5
0
0
0
16
34
0
132
20
226
225
126
66
222
125
129
66
125
159
240
193
4
255
22
27
5
0
0
0
16
34
0
132
21
68
228
126
66
108
133
129
66
77
183
240
193
4
255
22
27
5
0
0
0
16
34
0
132
22
8
232
126
66
20
134
129
66
192
181
240
193
4
255
22
27
5
0
0
0
16
34
0
132
23
133
228
126
66
44
125
129
66
6
156
240
193
4
255
22
27
5
0
0
0
16
34
0
132
24
70
225
126
66
4
129
129
66
176
165
240
193
4
255
22
27
5
0
0
0
16
34
0
132
25
173
229
126
66
60
134
129
66
25
182
240
193
4
255
22
27
5
0
0
0
16
34
0
132
26
244
226
126
66
4
123
129
66
46
143
240
193
4
255
22
27
5
0
0
0
16
34
0
132
27
157
227
126
66
162
126
129
66
103
155
240
193
4
255
22
27
5
0
0
0
16
34
0
132
28
86
230
126
66
32
127
129
66
199
157
240
193
4
255
22
27
5
0
0
0
16
34
0
132
29
44
229
126
66
38
122
129
66
228
140
240
193
4
255
22
27
5
0
0
0
16
34
0
132
30
58
228
126
66
130
126
129
66
68
155
240
193
4
255
22
27
5
0
0
0
16
34
0
132
31
98
226
126
66
2
126
129
66
125
159
240
193
4
255
22
27
5
0
0
0
16
34
0
132
32
206
221
126
66
106
121
129
66
163
140
240
193
4
255
22
27
5
0
0
0
16
34
0
132
33
219
225
126
66
62
120
129
66
215
130
240
193
4
255
22
27
5
0
0
0
16
34
0
132
34
183
225
126
66
116
123
129
66
214
140
240
193
4
255
22
27
5
0
0
0
16
34
0
132
35
125
230
126
66
68
125
129
66
81
147
240
193
4
255
22
27
5
0
0
0
16
34
0
132
36
144
232
126
66
160
127
129
66
188
157
240
193
4
255
22
27
5
0
0
0
16
34
0
132
37
142
226
126
66
52
131
129
66
107
172
240
193
4
255
22
27
5
0
0
0
16
34
0
132
38
251
224
126
66
84
134
129
66
81
184
240
193
4
255
22
27
5
0
0
0
16
34
0
132
39
170
229
126
66
234
126
129
66
218
153
240
193
4
255
22
27
5
0
0
0
16
34
0
132
40
99
231
126
66
230
129
129
66
89
164
240
193
4
255
22
27
5
0
0
0
16
34
0
132
41
200
230
126
66
18
127
129
66
121
154
240
193
4
255
22
27
5
0
0
0
16
34
0
132
42
81
232
126
66
252
128
129
66
207
159
240
193
4
255
22
27
5
0
0
0
16
34
0
132
43
173
236
126
66
216
120
129
66
0
129
240
193
4
255
22
27
5
0
0
0
16
34
0
132
44
49
231
126
66
56
117
129
66
7
116
240
193
4
255
22
27
5
0
0
0
16
34
0
132
45
128
228
126
66
252
116
129
66
189
115
240
193
4
255
22
27
5
0
0
0
16
34
0
132
46
245
227
126
66
40
108
129
66
200
85
240
193
4
255
22
27
5
0
0
0
16
34
0
132
47
246
229
126
66
60
110
129
66
125
88
240
193
4
255
22
27
5
0
0
0
16
34
0
132
48
126
226
126
66
40
105
129
66
96
72
240
193
4
255
22
27
5
0
0
0
16
34
0
132
49
69
224
126
66
216
102
129
66
150
63
240
193
4
255
22
27
5
0
0
0
16
34
0
132
50
59
228
126
66
98
107
129
66
23
77
240
193
4
255
22
27
5
0
0
0
16
34
0
132
51
38
228
126
66
160
104
129
66
155
68
240
193
4
255
22
27
5
0
0
0
16
34
0
132
52
104
225
126
66
196
98
129
66
154
47
240
193
4
255
22
27
5
0
0
0
16
34
0
132
53
163
231
126
66
128
96
129
66
197
38
240
193
4
255
22
27
5
0
0
0
16
34
0
132
54
50
230
126
66
162
98
129
66
188
44
240
193
4
255
22
27
5
0
0
0
16
34
0
132
55
31
229
126
66
124
95
129
66
229
34
240
193
4
255
22
27
5
0
0
0
16
34
0
132
56
212
227
126
66
242
95
129
66
120
36
240
193
4
255
22
27
5
0
0
0
16
34
0
132
57
210
233
126
66
98
96
129
66
184
37
240
193
4
255
22
27
5
0
0
0
16
34
0
132
58
88
235
126
66
118
98
129
66
172
46
240
193
4
255
22
27
5
0
0
0
16
34
0
132
59
72
232
126
66
152
101
129
66
194
59
240
193
4
255
22
27
5
0
0
0
16
34
0
132
60
71
227
126
66
20
101
129
66
249
54
240
193
4
255
22
27
5
0
0
0
16
34
0
132
61
201
225
126
66
110
95
129
66
179
35
240
193
4
255
22
27
5
0
0
0
16
34
0
132
62
7
228
126
66
172
97
129
66
52
42
240
193
4
255
22
27
5
0
0
0
16
34
0
132
63
99
229
126
66
136
98
129
66
185
43
240
193
4
255
22
27
5
0
0
0
16
34
0
132
64
5
233
126
66
208
97
129
66
93
39
240
193
4
255
22
27
5
0
0
0
16
34
0
132
65
123
232
126
66
186
92
129
66
124
18
240
193
4
255
22
27
5
0
0
0
16
34
0
132
66
91
236
126
66
152
92
129
66
57
17
240
193
4
255
22
27
5
0
0
0
16
34
0
132
67
6
230
126
66
172
85
129
66
100
247
239
193
4
255
22
27
5
0
0
0
16
34
0
132
68
13
224
126
66
164
82
129
66
155
239
239
193
4
255
22
27
5
0
0
0
16
34
0
132
69
83
222
126
66
148
76
129
66
75
215
239
193
4
255
22
27
5
0
0
0
16
34
0
132
70
252
221
126
66
22
74
129
66
20
206
239
193
4
255
22
27
5
0
0
0
16
34
0
132
71
185
221
126
66
60
77
129
66
162
216
239
193
4
255
22
27
5
0
0
0
16
34
0
132
72
7
218
126
66
34
75
129
66
39
210
239
193
4
255
22
27
5
0
0
0
16
34
0
132
73
208
216
126
66
212
77
129
66
64
220
239
193
4
255
22
27
5
0
0
0
16
34
0
132
74
174
216
126
66
74
75
129
66
43
212
239
193
4
255
22
27
5
0
0
0
16
34
0
132
75
39
213
126
66
206
69
129
66
128
188
239
193
4
255
22
27
5
0
0
0
16
34
0
132
76
232
216
126
66
76
67
129
66
73
177
239
193
4
255
22
27
5
0
0
0
16
34
0
132
77
111
214
126
66
80
70
129
66
28
189
239
193
4
255
22
27
5
0
0
0
16
34
0
132
78
147
216
126
66
106
70
129
66
6
189
239
193
4
255
22
27
5
0
0
0
16
34
0
132
79
80
219
126
66
248
71
129
66
235
193
239
193
4
255
22
27
5
0
0
0
16
34
0
132
80
215
220
126
66
48
72
129
66
180
194
239
193
4
255
22
27
5
0
0
0
16
34
0
132
81
143
218
126
66
76
68
129
66
58
179
239
193
4
255
22
27
5
0
0
0
16
34
0
132
82
243
222
126
66
64
77
129
66
202
207
239
193
4
255
22
27
5
0
0
0
16
34
0
132
83
6
227
126
66
78
76
129
66
98
204
239
193
4
255
22
27
5
0
0
0
16
34
0
132
84
45
227
126
66
200
76
129
66
154
204
239
193
4
255
22
27
5
0
0
0
16
34
0
132
85
73
227
126
66
110
70
129
66
226
181
239
193
4
255
22
27
5
0
0
0
16
34
0
132
86
140
222
126
66
52
70
129
66
18
182
239
193
4
255
22
27
5
0
0
0
16
34
0
132
87
84
221
126
66
202
69
129
66
195
178
239
193
4
255
22
27
5
0
0
0
16
34
0
132
88
204
220
126
66
114
73
129
66
223
189
239
193
4
255
22
27
5
0
0
0
16
34
0
132
89
95
224
126
66
178
73
129
66
217
190
239
193
4
255
22
27
5
0
0
0
16
34
0
132
90
85
220
126
66
238
66
129
66
21
164
239
193
4
255
22
27
5
0
0
0
16
34
0
132
91
199
215
126
66
56
63
129
66
250
150
239
193
4
255
22
27
5
0
0
0
16
34
0
132
92
17
220
126
66
218
62
129
66
113
147
239
193
4
255
22
27
5
0
0
0
16
34
0
132
93
225
220
126
66
68
67
129
66
152
163
239
193
4
255
22
27
5
0
0
0
16
34
0
132
94
199
219
126
66
60
67
129
66
151
163
239
193
4
255
22
27
5
0
0
0
16
34
0
132
95
190
216
126
66
160
71
129
66
179
178
239
193
4
255
22
27
5
0
0
0
16
34
0
132
96
43
214
126
66
192
66
129
66
234
160
239
193
4
255
22
27
5
0
0
0
16
34
0
132
97
25
213
126
66
172
69
129
66
191
169
239
193
4
255
22
27
5
0
0
0
16
34
0
132
98
244
212
126
66
118
71
129
66
123
173
239
193
4
255
22
27
5
0
0
0
16
34
0
132
99
9
215
126
66
254
71
129
66
249
173
239
193
4
255
22
27
5
0
0
0
16
34
0
132
100
93
216
126
66
126
69
129
66
222
164
239
193
4
255
22
27
5
0
0
0
16
34
0
132
101
15
215
126
66
26
73
129
66
134
178
239
193
4
255
22
27
5
0
0
0
16
34
0
132
102
36
218
126
66
188
75
129
66
223
186
239
193
4
255
22
27
5
0
0
0
16
34
0
132
103
153
220
126
66
140
82
129
66
206
212
239
193
4
255
22
27
5
0
0
0
16
34
0
132
104
131
219
126
66
238
82
129
66
71
217
239
193
4
255
22
27
5
0
0
0
16
34
0
132
105
106
220
126
66
98
82
129
66
77
214
239
193
4
255
22
27
5
0
0
0
16
34
0
132
106
240
218
126
66
106
80
129
66
118
205
239
193
4
255
22
27
5
0
0
0
16
34
0
132
107
9
221
126
66
74
80
129
66
131
206
239
193
4
255
22
27
5
0
0
0
16
34
0
132
108
102
218
126
66
24
79
129
66
93
200
239
193
4
255
22
27
5
0
0
0
16
34
0
132
109
127
214
126
66
202
72
129
66
45
178
239
193
4
255
22
27
5
0
0
0
16
34
0
132
110
81
217
126
66
26
75
129
66
253
186
239
193
4
255
22
27
5
0
0
0
16
34
0
132
111
226
213
126
66
76
69
129
66
159
168
239
193
4
255
22
27
5
0
0
0
16
34
0
132
112
95
216
126
66
170
66
129
66
218
156
239
193
4
255
22
27
5
0
0
0
16
34
0
132
113
1
220
126
66
68
70
129
66
54
168
239
193
4
255
22
27
5
0
0
0
16
34
0
132
114
170
218
126
66
154
67
129
66
210
161
239
193
4
255
22
27
5
0
0
0
16
34
0
132
115
55
217
126
66
44
68
129
66
188
160
239
193
4
255
22
27
5
0
0
0
16
34
0
132
116
199
217
126
66
166
65
129
66
12
150
239
193
4
255
22
27
5
0
0
0
16
34
0
132
117
206
214
126
66
248
70
129
66
55
167
239
193
4
255
22
27
5
0
0
0
16
34
0
132
118
55
216
126
66
132
72
129
66
159
170
239
193
4
255
22
27
5
0
0
0
16
34
0
132
119
2
215
126
66
168
68
129
66
5
159
239
193
4
255
22
27
5
0
0
0
16
34
0
132
120
243
209
126
66
10
65
129
66
193
146
239
193
4
255
22
27
5
0
0
0
16
34
0
132
121
22
211
126
66
190
63
129
66
10
144
239
193
4
255
22
27
5
0
0
0
16
34
0
132
122
193
214
126
66
146
59
129
66
97
129
239
193
4
255
22
27
5
0
0
0
16
34
0
132
123
2
212
126
66
46
55
129
66
200
116
239
193
4
255
22
27
5
0
0
0
16
34
0
132
124
197
211
126
66
46
52
129
66
146
107
239
193
4
255
22
27
5
0
0
0
16
34
0
132
125
151
216
126
66
48
45
129
66
67
81
239
193
4
255
22
27
5
0
0
0
16
34
0
132
126
193
212
126
66
148
53
129
66
142
110
239
193
4
255
22
27
5
0
0
0
16
34
0
132
127
114
209
126
66
14
59
129
66
120
128
239
193
4
255
22
27
5
0
0
0
16
34
0
132
128
168
209
126
66
172
55
129
66
220
113
239
193
4
255
22
27
5
0
0
0
16
34
0
132
129
220
208
126
66
230
59
129
66
129
129
239
193
4
255
22
27
5
0
0
0
16
34
0
132
130
175
210
126
66
176
59
129
66
201
127
239
193
4
255
22
27
5
0
0
0
16
34
0
132
131
116
214
126
66
56
68
129
66
44
158
239
193
4
255
22
27
5
0
0
0
16
34
0
132
132
220
214
126
66
158
64
129
66
187
143
239
193
4
255
22
27
5
0
0
0
16
34
0
132
133
122
214
126
66
204
65
129
66
101
148
239
193
4
255
22
27
5
0
0
0
16
34
0
132
134
223
214
126
66
240
69
129
66
209
162
239
193
4
255
22
27
5
0
0
0
16
34
0
132
135
18
217
126
66
46
74
129
66
174
178
239
193
4
255
22
27
5
0
0
0
16
34
0
132
136
142
219
126
66
170
77
129
66
235
190
239
193
4
255
22
27
5
0
0
0
16
34
0
132
137
188
217
126
66
92
77
129
66
89
189
239
193
4
255
22
27
5
0
0
0
16
34
0
132
138
147
218
126
66
192
70
129
66
96
160
239
193
4
255
22
27
5
0
0
0
16
34
0
132
139
247
218
126
66
248
72
129
66
155
169
239
193
4
255
22
27
5
0
0
0
16
34
0
132
140
207
218
126
66
172
70
129
66
179
159
239
193
4
255
22
27
5
0
0
0
16
34
0
132
141
209
217
126
66
138
68
129
66
42
155
239
193
4
255
22
27
5
0
0
0
16
34
0
132
142
121
218
126
66
208
64
129
66
6
142
239
193
4
255
22
27
5
0
0
0
16
34
0
132
143
148
216
126
66
106
61
129
66
102
132
239
193
4
255
22
27
5
0
0
0
16
34
0
132
144
145
219
126
66
228
63
129
66
95
142
239
193
4
255
22
27
5
0
0
0
16
34
0
132
145
9
223
126
66
54
66
129
66
155
148
239
193
4
255
22
27
5
0
0
0
16
34
0
132
146
126
223
126
66
158
73
129
66
222
176
239
193
4
255
22
27
5
0
0
0
16
34
0
132
147
244
226
126
66
140
78
129
66
109
194
239
193
4
255
22
27
5
0
0
0
16
34
0
132
148
137
229
126
66
180
83
129
66
136
208
239
193
4
255
22
27
5
0
0
0
16
34
0
132
149
129
231
126
66
142
83
129
66
18
206
239
193
4
255
22
27
5
0
0
0
16
34
0
132
150
94
226
126
66
80
84
129
66
225
209
239
193
4
255
22
27
5
0
0
0
16
34
0
132
151
27
232
126
66
146
87
129
66
41
217
239
193
4
255
22
27
5
0
0
0
16
34
0
132
152
106
232
126
66
94
87
129
66
233
215
239
193
4
255
22
27
5
0
0
0
16
34
0
132
153
193
231
126
66
160
85
129
66
100
209
239
193
4
255
22
27
5
0
0
0
16
34
0
132
154
92
232
126
66
212
96
129
66
130
249
239
193
4
255
22
27
5
0
0
0
16
34
0
132
155
185
231
126
66
124
91
129
66
250
228
239
193
4
255
22
27
5
0
0
0
16
34
0
132
156
206
235
126
66
70
97
129
66
157
250
239
193
4
255
22
27
5
0
0
0
16
34
0
132
157
202
237
126
66
2
102
129
66
64
12
240
193
4
255
22
27
5
0
0
0
16
34
0
132
158
131
239
126
66
112
102
129
66
179
12
240
193
4
255
22
27
5
0
0
0
16
34
0
132
159
20
238
126
66
110
96
129
66
130
247
239
193
4
255
22
27
5
0
0
0
16
34
0
132
160
98
242
126
66
178
102
129
66
209
13
240
193
4
255
22
27
5
0
0
0
16
34
0
132
161
168
243
126
66
206
104
129
66
208
21
240
193
4
255
22
27
5
0
0
0
16
34
0
132
162
87
243
126
66
248
99
129
66
32
6
240
193
4
255
22
27
5
0
0
0
16
34
0
132
163
230
240
126
66
64
101
129
66
22
10
240
193
4
255
22
27
5
0
0
0
16
34
0
132
164
24
243
126
66
228
112
129
66
36
53
240
193
4
255
22
27
5
0
0
0
16
34
0
132
165
20
247
126
66
208
114
129
66
190
58
240
193
4
255
22
27
5
0
0
0
16
34
0
132
166
49
241
126
66
214
111
129
66
91
48
240
193
4
255
22
27
5
0
0
0
16
34
0
132
167
164
239
126
66
104
118
129
66
188
69
240
193
4
255
22
27
5
0
0
0
16
34
0
132
168
253
239
126
66
132
119
129
66
74
74
240
193
4
255
22
27
5
0
0
0
16
34
0
132
169
14
243
126
66
232
120
129
66
192
81
240
193
4
255
22
27
5
0
0
0
16
34
0
132
170
250
243
126
66
188
122
129
66
159
89
240
193
4
255
22
27
5
0
0
0
16
34
0
132
171
142
243
126
66
52
120
129
66
114
81
240
193
4
255
22
27
5
0
0
0
16
34
0
132
172
132
245
126
66
190
121
129
66
70
89
240
193
4
255
22
27
5
0
0
0
16
34
0
132
173
185
247
126
66
108
123
129
66
0
95
240
193
4
255
22
27
5
0
0
0
16
34
0
132
174
182
251
126
66
116
126
129
66
1
107
240
193
4
255
22
27
5
0
0
0
16
34
0
132
175
19
249
126
66
206
122
129
66
19
96
240
193
4
255
22
27
5
0
0
0
16
34
0
132
176
78
249
126
66
2
125
129
66
52
106
240
193
4
255
22
27
5
0
0
0
16
34
0
132
177
58
245
126
66
224
116
129
66
71
76
240
193
4
255
22
27
5
0
0
0
16
34
0
132
178
208
245
126
66
6
116
129
66
155
70
240
193
4
255
22
27
5
0
0
0
16
34
0
132
179
5
251
126
66
78
113
129
66
169
63
240
193
4
255
22
27
5
0
0
0
16
34
0
132
180
202
253
126
66
100
111
129
66
151
55
240
193
4
255
22
27
5
0
0
0
16
34
0
132
181
154
1
127
66
164
102
129
66
50
25
240
193
4
255
22
27
5
0
0
0
16
34
0
132
182
100
3
127
66
26
94
129
66
241
248
239
193
4
255
22
27
5
0
0
0
16
34
0
132
183
78
5
127
66
242
96
129
66
127
3
240
193
4
255
22
27
5
0
0
0
16
34
0
132
184
236
6
127
66
172
92
129
66
141
243
239
193
4
255
22
27
5
0
0
0
16
34
0
132
185
104
7
127
66
214
90
129
66
37
237
239
193
4
255
22
27
5
0
0
0
16
34
0
132
186
174
6
127
66
246
92
129
66
74
244
239
193
4
255
22
27
5
0
0
0
16
34
0
132
187
20
5
127
66
26
96
129
66
66
254
239
193
4
255
22
27
5
0
0
0
16
34
0
132
188
29
7
127
66
202
98
129
66
115
3
240
193
4
255
22
27
5
0
0
0
16
34
0
132
189
133
9
127
66
54
95
129
66
156
244
239
193
4
255
22
27
5
0
0
0
16
34
0
132
190
2
3
127
66
150
93
129
66
130
239
239
193
4
255
22
27
5
0
0
0
16
34
0
132
191
52
3
127
66
220
93
129
66
201
237
239
193
4
255
22
27
5
0
0
0
16
34
0
132
192
97
1
127
66
254
95
129
66
22
244
239
193
4
255
22
27
5
0
0
0
16
34
0
132
193
55
250
126
66
220
96
129
66
204
246
239
193
4
255
22
27
5
0
0
0
16
34
0
132
194
108
251
126
66
106
92
129
66
142
231
239
193
4
255
22
27
5
0
0
0
16
34
0
132
195
89
249
126
66
10
87
129
66
104
212
239
193
4
255
22
27
5
0
0
0
16
34
0
132
196
23
249
126
66
152
80
129
66
89
189
239
193
4
255
22
27
5
0
0
0
16
34
0
132
197
49
252
126
66
118
86
129
66
170
211
239
193
4
255
22
27
5
0
0
0
16
34
0
132
198
227
251
126
66
192
82
129
66
211
197
239
193
4
255
22
27
5
0
0
0
16
34
0
132
199
49
247
126
66
28
76
129
66
246
172
239
193
4
255
22
27
5
0
0
0
16
34
0
132
200
148
244
126
66
134
70
129
66
189
151
239
193
4
255
22
27
5
0
0
0
16
34
0
132
201
180
247
126
66
60
69
129
66
71
148
239
193
4
255
22
27
5
0
0
0
16
34
0
132
202
105
246
126
66
242
66
129
66
130
138
239
193
4
255
22
27
5
0
0
0
16
34
0
132
203
221
246
126
66
140
77
129
66
122
174
239
193
4
255
22
27
5
0
0
0
16
34
0
132
204
20
246
126
66
226
79
129
66
46
184
239
193
4
255
22
27
5
0
0
0
16
34
0
132
205
253
241
126
66
78
81
129
66
98
188
239
193
4
255
22
27
5
0
0
0
16
34
0
132
206
140
236
126
66
192
77
129
66
135
175
239
193
4
255
22
27
5
0
0
0
16
34
0
132
207
79
236
126
66
20
70
129
66
73
148
239
193
4
255
22
27
5
0
0
0
16
34
0
132
208
245
234
126
66
226
57
129
66
246
99
239
193
4
255
22
27
5
0
0
0
16
34
0
132
209
137
232
126
66
12
52
129
66
52
79
239
193
4
255
22
27
5
0
0
0
16
34
0
132
210
244
230
126
66
84
57
129
66
248
98
239
193
4
255
22
27
5
0
0
0
16
34
0
132
211
67
230
126
66
74
53
129
66
114
80
239
193
4
255
22
27
5
0
0
0
16
34
0
132
212
20
236
126
66
170
53
129
66
1
83
239
193
4
255
22
27
5
0
0
0
16
34
0
132
213
111
233
126
66
100
51
129
66
16
75
239
193
4
255
22
27
5
0
0
0
16
34
0
132
214
80
230
126
66
184
48
129
66
48
65
239
193
4
255
22
27
5
0
0
0
16
34
0
132
215
144
232
126
66
184
50
129
66
181
72
239
193
4
255
22
27
5
0
0
0
16
34
0
132
216
217
233
126
66
24
51
129
66
178
71
239
193
4
255
22
27
5
0
0
0
16
34
0
132
217
33
235
126
66
132
48
129
66
0
63
239
193
4
255
22
27
5
0
0
0
16
34
0
132
218
16
234
126
66
4
46
129
66
194
53
239
193
4
255
22
27
5
0
0
0
16
34
0
132
219
72
233
126
66
162
51
129
66
212
77
239
193
4
255
22
27
5
0
0
0
16
34
0
132
220
190
235
126
66
16
55
129
66
126
89
239
193
4
255
22
27
5
0
0
0
16
34
0
132
221
218
235
126
66
238
58
129
66
89
105
239
193
4
255
22
27
5
0
0
0
16
34
0
132
222
254
235
126
66
110
61
129
66
129
116
239
193
4
255
22
27
5
0
0
0
16
34
0
132
223
190
232
126
66
158
59
129
66
53
110
239
193
4
255
22
27
5
0
0
0
16
34
0
132
224
59
230
126
66
214
55
129
66
225
97
239
193
4
255
22
27
5
0
0
0
16
34
0
132
225
4
233
126
66
254
51
129
66
226
84
239
193
4
255
22
27
5
0
0
0
16
34
0
132
226
25
228
126
66
186
46
129
66
176
65
239
193
4
255
22
27
5
0
0
0
16
34
0
132
227
28
227
126
66
40
50
129
66
17
80
239
193
4
255
22
27
5
0
0
0
16
34
0
132
228
20
229
126
66
114
51
129
66
123
85
239
193
4
255
22
27
5
0
0
0
16
34
0
132
229
251
223
126
66
10
53
129
66
152
96
239
193
4
255
22
27
5
0
0
0
16
34
0
132
230
31
222
126
66
174
59
129
66
75
123
239
193
4
255
22
27
5
0
0
0
16
34
0
132
231
2
225
126
66
162
60
129
66
201
125
239
193
4
255
22
27
5
0
0
0
16
34
0
132
232
160
227
126
66
14
60
129
66
65
122
239
193
4
255
22
27
5
0
0
0
16
34
0
132
233
188
228
126
66
166
64
129
66
106
138
239
193
4
255
22
27
5
0
0
0
16
34
0
132
234
121
227
126
66
10
68
129
66
106
149
239
193
4
255
22
27
5
0
0
0
16
34
0
132
235
187
224
126
66
194
65
129
66
65
142
239
193
4
255
22
27
5
0
0
0
16
34
0
132
236
147
224
126
66
208
70
129
66
96
159
239
193
4
255
22
27
5
0
0
0
16
34
0
132
237
81
224
126
66
4
69
129
66
217
153
239
193
4
255
22
27
5
0
0
0
16
34
0
132
238
168
228
126
66
34
68
129
66
48
154
239
193
4
255
22
27
5
0
0
0
16
34
0
132
239
124
229
126
66
174
63
129
66
8
139
239
193
4
255
22
27
5
0
0
0
16
34
0
132
240
174
231
126
66
238
70
129
66
116
164
239
193
4
255
22
27
5
0
0
0
16
34
0
132
241
162
232
126
66
212
68
129
66
158
158
239
193
4
255
22
27
5
0
0
0
16
34
0
132
242
26
232
126
66
152
65
129
66
191
142
239
193
4
255
22
27
5
0
0
0
16
34
0
132
243
119
235
126
66
202
73
129
66
243
169
239
193